# OpenSignals Text File Format
# {"88:6B:0F:AB:F7:03":{"sensor":["gEMG","gACC","gACC","gACC","pMAG","pMAG","pMAG"],"device name":"88:6B:0F:AB:F7:03","column":["nSeq","DI","gEMG","gACC","gACC","gACC","pMAG","pMAG","pMAG"],"sync interval":2,"time":"10:59:57","comments":"","keywords":"","device connection":"BTH88:6B:0F:AB:F7:03","channels":[1,2,3,4,5,6,7],"date":"2025-07-11","mode":0,"digital IO":[0,1],"firmware version":1026,"device":"musclebanplux","position":0,"sampling rate":1000,"label":["gEMG","gACC","gACC","gACC","pMAG","pMAG","pMAG"],"resolution":[16,16,16,16,16,16,16],"special":[{},{},{},{},{},{},{}],"sleeve color":["UNKNOWN","UNKNOWN","UNKNOWN","UNKNOWN","UNKNOWN","UNKNOWN","UNKNOWN"]}}
# EndOfHeader
0	0	34864	4572	5112	56584	32768	32768	32768
1	0	56064	4572	5112	56584	32768	32768	32768
2	0	46112	4572	5112	56584	32768	32768	32768
3	0	49440	32756	32280	39288	33308	33608	32841
4	0	42352	32756	32280	39288	33308	33608	32841
5	0	47840	32908	32604	40688	33316	33657	33329
6	0	21568	32908	32604	40688	33316	33657	33329
7	0	49712	32908	32604	40688	33316	33657	33329
8	0	32464	32904	32520	40864	33352	33652	33330
9	0	21072	32904	32520	40864	33352	33652	33330
10	0	30608	32912	32504	40912	33332	33688	33396
11	0	4480	32912	32504	40912	33332	33688	33396
12	0	31792	32912	32504	40912	33332	33688	33396
13	0	17440	32864	32520	40888	33339	33669	33386
14	0	14320	32864	32520	40888	33339	33669	33386
15	0	30816	32956	32536	40864	33344	33666	33427
16	0	11760	32956	32536	40864	33344	33666	33427
17	0	43792	32956	32536	40864	33344	33666	33427
18	0	35008	32928	32520	40864	33340	33672	33361
19	0	35056	32928	32520	40864	33340	33672	33361
20	0	50160	32920	32544	40864	33322	33681	33403
21	0	30240	32920	32544	40864	33322	33681	33403
22	0	63216	32920	32544	40864	33322	33681	33403
23	0	49856	32884	32588	40896	33331	33658	33349
24	0	41456	32884	32588	40896	33331	33658	33349
25	0	49680	32936	32576	40912	33330	33669	33307
26	0	21712	32936	32576	40912	33330	33669	33307
27	0	47664	32936	32576	40912	33330	33669	33307
28	0	32528	32924	32592	40920	33327	33670	33373
29	0	21360	32924	32592	40920	33327	33670	33373
30	0	31392	32900	32576	40848	33355	33693	33357
31	0	1856	32900	32576	40848	33355	33693	33357
32	0	32048	32900	32576	40848	33355	33693	33357
33	0	18064	32924	32560	40944	33349	33662	33345
34	0	13856	32924	32560	40944	33349	33662	33345
35	0	30256	32912	32572	40816	33329	33686	33372
36	0	12912	32912	32572	40816	33329	33686	33372
37	0	43280	32912	32572	40816	33329	33686	33372
38	0	26848	32912	32544	40904	33364	33660	33377
39	0	27856	32912	32544	40904	33364	33660	33377
40	0	53760	32932	32536	40792	33358	33672	33363
41	0	36064	32932	32536	40792	33358	33672	33363
42	0	61792	32932	32536	40792	33358	33672	33363
43	0	42128	32908	32572	40800	33333	33672	33364
44	0	45120	32908	32572	40800	33333	33672	33364
45	0	50576	32968	32528	40840	33345	33679	33345
46	0	24208	32968	32528	40840	33345	33679	33345
47	0	49904	32968	32528	40840	33345	33679	33345
48	0	26672	32940	32536	40904	33327	33683	33331
49	0	29408	32940	32536	40904	33327	33683	33331
50	0	33776	32912	32552	40888	33334	33690	33341
51	0	4496	32912	32552	40888	33334	33690	33341
52	0	31600	32912	32552	40888	33334	33690	33341
53	0	9152	32932	32564	40896	33341	33683	33345
54	0	22336	32932	32564	40896	33341	33683	33345
55	0	32880	32992	32552	40840	33338	33684	33364
56	0	13376	32992	32552	40840	33338	33684	33364
57	0	43536	32992	32552	40840	33338	33684	33364
58	0	26016	32928	32528	40912	33359	33651	33354
59	0	45952	32928	32528	40912	33359	33651	33354
60	0	50592	32968	32520	40744	33315	33640	33369
61	0	38960	32968	32520	40744	33315	33640	33369
62	0	57664	32968	32520	40744	33315	33640	33369
63	0	40512	32960	32536	40872	33323	33678	33352
64	0	37312	32960	32536	40872	33323	33678	33352
65	0	54112	32920	32544	40988	33354	33674	33365
66	0	25888	32920	32544	40988	33354	33674	33365
67	0	48576	32920	32544	40988	33354	33674	33365
68	0	25504	32924	32576	40848	33344	33689	33346
69	0	13488	32924	32576	40848	33344	33689	33346
70	0	38576	32920	32604	40872	33339	33639	33330
71	0	6592	32920	32604	40872	33339	33639	33330
72	0	29440	32920	32604	40872	33339	33639	33330
73	0	9104	32916	32536	40856	33359	33671	33349
74	0	8432	32916	32536	40856	33359	33671	33349
75	0	34832	32948	32544	40832	33372	33637	33397
76	0	15184	32948	32544	40832	33372	33637	33397
77	0	40320	32948	32544	40832	33372	33637	33397
78	0	27008	32924	32536	40816	33362	33674	33405
79	0	29072	32924	32536	40816	33362	33674	33405
80	0	53872	32920	32600	40872	33347	33644	33335
81	0	31840	32920	32600	40872	33347	33644	33335
82	0	57680	32920	32600	40872	33347	33644	33335
83	0	42928	32944	32592	40856	33285	33631	33382
84	0	42640	32944	32592	40856	33285	33631	33382
85	0	51536	32900	32604	40744	33310	33657	33396
86	0	22384	32900	32604	40744	33310	33657	33396
87	0	43392	32900	32604	40744	33310	33657	33396
88	0	33440	32904	32504	40904	33320	33686	33341
89	0	20832	32904	32504	40904	33320	33686	33341
90	0	32592	32948	32576	40752	33315	33682	33297
91	0	3376	32948	32576	40752	33315	33682	33297
92	0	26480	32948	32576	40752	33315	33682	33297
93	0	18992	32900	32520	40792	33329	33684	33395
94	0	11584	32900	32520	40792	33329	33684	33395
95	0	33920	32932	32528	40888	33344	33660	33315
96	0	13424	32932	32528	40888	33344	33660	33315
97	0	38448	32932	32528	40888	33344	33660	33315
98	0	34944	32920	32568	40784	33346	33674	33357
99	0	35632	32920	32568	40784	33346	33674	33357
100	0	52480	32912	32552	40808	33332	33645	33330
101	0	30688	32912	32552	40808	33332	33645	33330
102	0	55504	32912	32552	40808	33332	33645	33330
103	0	51280	32936	32540	40760	33332	33667	33375
104	0	41568	32936	32540	40760	33332	33667	33375
105	0	54672	32916	32520	40744	33310	33674	33389
106	0	21632	32916	32520	40744	33310	33674	33389
107	0	40768	32916	32520	40744	33310	33674	33389
108	0	36960	32912	32560	40904	33339	33666	33359
109	0	21040	32912	32560	40904	33339	33666	33359
110	0	34144	32912	32544	40864	33366	33664	33330
111	0	3152	32912	32544	40864	33366	33664	33330
112	0	23888	32912	32544	40864	33366	33664	33330
113	0	19312	32924	32584	40880	33332	33640	33349
114	0	13520	32924	32584	40880	33332	33640	33349
115	0	32448	32892	32560	40888	33329	33672	33361
116	0	13296	32892	32560	40888	33329	33672	33361
117	0	35264	32892	32560	40888	33329	33672	33361
118	0	36368	32960	32536	40880	33333	33657	33348
119	0	35104	32960	32536	40880	33333	33657	33348
120	0	52736	32936	32568	40840	33338	33664	33366
121	0	32864	32936	32568	40840	33338	33664	33366
122	0	52224	32936	32568	40840	33338	33664	33366
123	0	51040	32952	32520	40744	33355	33670	33370
124	0	42224	32952	32520	40744	33355	33670	33370
125	0	53920	32952	32520	40744	33355	33670	33370
126	0	34592	32944	32628	40856	33338	33657	33361
127	0	40064	32944	32628	40856	33338	33657	33361
128	0	35440	32940	32512	40888	33319	33665	33380
129	0	20896	32940	32512	40888	33319	33665	33380
130	0	34240	32940	32512	40888	33319	33665	33380
131	0	15280	32920	32544	40856	33307	33676	33350
132	0	20944	32920	32544	40856	33307	33676	33350
133	0	21952	32900	32512	40744	33312	33648	33364
134	0	12912	32900	32512	40744	33312	33648	33364
135	0	34032	32900	32512	40744	33312	33648	33364
136	0	22352	32900	32548	40880	33321	33679	33374
137	0	33872	32900	32548	40880	33321	33679	33374
138	0	36400	32924	32568	40784	33319	33667	33312
139	0	34432	32924	32568	40784	33319	33667	33312
140	0	53456	32924	32568	40784	33319	33667	33312
141	0	40736	32928	32536	40920	33334	33656	33403
142	0	52240	32928	32536	40920	33334	33656	33403
143	0	51568	32924	32528	40944	33343	33689	33384
144	0	41424	32924	32528	40944	33343	33689	33384
145	0	54496	32924	32528	40944	33343	33689	33384
146	0	35168	32904	32488	40920	33350	33672	33355
147	0	39216	32904	32488	40920	33350	33672	33355
148	0	35056	32932	32592	40768	33335	33666	33359
149	0	19744	32932	32592	40768	33335	33666	33359
150	0	35392	32932	32592	40768	33335	33666	33359
151	0	15728	32904	32568	40776	33343	33665	33397
152	0	22608	32904	32568	40776	33343	33665	33397
153	0	18656	32892	32512	40896	33348	33628	33395
154	0	13632	32892	32512	40896	33348	33628	33395
155	0	34000	32892	32512	40896	33348	33628	33395
156	0	23184	32904	32536	40880	33358	33667	33360
157	0	27536	32904	32536	40880	33358	33667	33360
158	0	41120	32896	32536	40808	33336	33666	33330
159	0	35456	32896	32536	40808	33336	33666	33330
160	0	53744	32896	32536	40808	33336	33666	33330
161	0	39488	32900	32512	40872	33337	33681	33330
162	0	52080	32900	32512	40872	33337	33681	33330
163	0	51088	32924	32568	40864	33344	33691	33398
164	0	32448	32924	32568	40864	33344	33691	33398
165	0	65392	32924	32568	40864	33344	33691	33398
166	0	32640	32912	32536	40880	33353	33638	33345
167	0	40400	32912	32536	40880	33353	33638	33345
168	0	28464	32924	32528	40896	33293	33651	33346
169	0	29776	32924	32528	40896	33293	33651	33346
170	0	36416	32924	32528	40896	33293	33651	33346
171	0	17056	32872	32528	40824	33300	33688	33376
172	0	30768	32872	32528	40824	33300	33688	33376
173	0	9024	32936	32560	40736	33316	33661	33310
174	0	16352	32936	32560	40736	33316	33661	33310
175	0	31168	32936	32560	40736	33316	33661	33310
176	0	21680	32924	32544	40736	33344	33686	33362
177	0	44176	32924	32544	40736	33344	33686	33362
178	0	26496	32932	32512	40744	33326	33664	33355
179	0	42752	32932	32512	40744	33326	33664	33355
180	0	51376	32932	32512	40744	33326	33664	33355
181	0	40512	32932	32560	40904	33331	33653	33335
182	0	56656	32932	32560	40904	33331	33653	33335
183	0	42864	32872	32568	40936	33328	33611	33387
184	0	42608	32872	32568	40936	33328	33611	33387
185	0	54448	32872	32568	40936	33328	33611	33387
186	0	40976	32892	32544	40840	33335	33645	33376
187	0	39088	32892	32544	40840	33335	33645	33376
188	0	26208	32968	32544	40848	33315	33647	33392
189	0	13248	32968	32544	40848	33315	33647	33392
190	0	41392	32968	32544	40848	33315	33647	33392
191	0	19936	32936	32560	40760	33330	33648	33335
192	0	21600	32936	32560	40760	33330	33648	33335
193	0	13456	32920	32544	40872	33350	33637	33345
194	0	11248	32920	32544	40872	33350	33637	33345
195	0	36848	32920	32544	40872	33350	33637	33345
196	0	28368	32912	32604	40728	33297	33640	33375
197	0	32880	32912	32604	40728	33297	33640	33375
198	0	31424	32928	32592	40920	33329	33637	33388
199	0	30304	32928	32592	40920	33329	33637	33388
200	0	58240	32928	32592	40920	33329	33637	33388
201	0	43328	32892	32496	40880	33319	33660	33321
202	0	50160	32892	32496	40880	33319	33660	33321
203	0	43712	32920	32536	40880	33278	33640	33314
204	0	41408	32920	32536	40880	33278	33640	33314
205	0	59584	32920	32536	40880	33278	33640	33314
206	0	34448	32912	32536	40964	33326	33660	33283
207	0	38160	32912	32536	40964	33326	33660	33283
208	0	34048	32904	32504	40800	33326	33678	33327
209	0	20384	32904	32504	40800	33326	33678	33327
210	0	35344	32904	32504	40800	33326	33678	33327
211	0	16400	32940	32528	40728	33338	33664	33353
212	0	20480	32940	32528	40728	33338	33664	33353
213	0	18736	32912	32512	40944	33355	33671	33346
214	0	15168	32912	32512	40944	33355	33671	33346
215	0	34976	32912	32512	40944	33355	33671	33346
216	0	22304	32912	32568	40872	33336	33672	33343
217	0	30800	32912	32568	40872	33336	33672	33343
218	0	36240	32916	32572	40856	33347	33664	33346
219	0	34752	32916	32572	40856	33347	33664	33346
220	0	55376	32916	32572	40856	33347	33664	33346
221	0	42240	32928	32616	40880	33342	33645	33365
222	0	48448	32928	32616	40880	33342	33645	33365
223	0	52512	32896	32528	40924	33308	33651	33353
224	0	31776	32896	32528	40924	33308	33651	33353
225	0	57744	32896	32528	40924	33308	33651	33353
226	0	33440	32892	32552	40888	33315	33669	33330
227	0	35328	32892	32552	40888	33315	33669	33330
228	0	37296	32944	32536	40912	33329	33666	33364
229	0	9840	32944	32536	40912	33329	33666	33364
230	0	41088	32944	32536	40912	33329	33666	33364
231	0	16224	32932	32604	40728	33338	33661	33338
232	0	16592	32932	32604	40728	33338	33661	33338
233	0	17792	32912	32568	40864	33327	33680	33393
234	0	5696	32912	32568	40864	33327	33680	33393
235	0	34000	32912	32568	40864	33327	33680	33393
236	0	22192	32880	32592	40904	33328	33679	33394
237	0	28288	32880	32592	40904	33328	33679	33394
238	0	37520	32900	32536	40888	33331	33674	33361
239	0	24192	32900	32536	40888	33331	33674	33361
240	0	54896	32900	32536	40888	33331	33674	33361
241	0	39840	32912	32504	40960	33331	33647	33371
242	0	45472	32912	32504	40960	33331	33647	33371
243	0	51984	32932	32520	40928	33306	33653	33278
244	0	33968	32932	32520	40928	33306	33653	33278
245	0	57824	32932	32520	40928	33306	33653	33278
246	0	34192	32924	32576	40776	33335	33668	33345
247	0	33664	32924	32576	40776	33335	33668	33345
248	0	37056	32920	32552	40816	33362	33668	33376
249	0	13392	32920	32552	40816	33362	33668	33376
250	0	36976	32920	32552	40816	33362	33668	33376
251	0	16816	32884	32552	40816	33335	33653	33317
252	0	14560	32884	32552	40816	33335	33653	33317
253	0	21920	32924	32596	40872	33328	33660	33383
254	0	1632	32924	32596	40872	33328	33660	33383
255	0	38992	32924	32596	40872	33328	33660	33383
256	0	24144	32928	32568	40824	33319	33647	33334
257	0	24176	32928	32568	40824	33319	33647	33334
258	0	35872	32908	32536	40904	33349	33643	33341
259	0	25488	32908	32536	40904	33349	33643	33341
260	0	55664	32908	32536	40904	33349	33643	33341
261	0	40960	32908	32552	40848	33336	33618	33334
262	0	41392	32908	32552	40848	33336	33618	33334
263	0	53376	32932	32496	40856	33351	33648	33355
264	0	32416	32932	32496	40856	33351	33648	33355
265	0	57856	32932	32496	40856	33351	33648	33355
266	0	34048	32908	32544	40864	33339	33674	33379
267	0	31232	32908	32544	40864	33339	33674	33379
268	0	37952	32944	32568	40880	33353	33639	33434
269	0	13104	32944	32568	40880	33353	33639	33434
270	0	37696	32944	32568	40880	33353	33639	33434
271	0	16224	32872	32520	40880	33334	33658	33387
272	0	14096	32872	32520	40880	33334	33658	33387
273	0	21184	32916	32560	40840	33318	33681	33306
274	0	3584	32916	32560	40840	33318	33681	33306
275	0	34640	32916	32560	40840	33318	33681	33306
276	0	23424	32920	32604	40856	33350	33665	33325
277	0	22800	32920	32604	40856	33350	33665	33325
278	0	39328	32896	32632	40872	33359	33660	33365
279	0	19936	32896	32632	40872	33359	33660	33365
280	0	59776	32896	32632	40872	33359	33660	33365
281	0	40976	32952	32604	40776	33353	33639	33336
282	0	34896	32952	32604	40776	33353	33639	33336
283	0	58688	32912	32544	40928	33331	33672	33344
284	0	28464	32912	32544	40928	33331	33672	33344
285	0	62400	32912	32544	40928	33331	33672	33344
286	0	32720	32948	32552	40880	33349	33645	33339
287	0	39600	32948	32552	40880	33349	33645	33339
288	0	28800	32932	32604	40888	33316	33636	33383
289	0	11760	32932	32604	40888	33316	33636	33383
290	0	43056	32932	32604	40888	33316	33636	33383
291	0	13936	32944	32564	40848	33327	33655	33343
292	0	16064	32944	32564	40848	33327	33655	33343
293	0	16528	32948	32604	40832	33327	33631	33380
294	0	0	32948	32604	40832	33327	33631	33380
295	0	34080	32948	32604	40832	33327	33631	33380
296	0	26656	32920	32580	40920	33318	33659	33331
297	0	16784	32920	32580	40920	33318	33659	33331
298	0	46000	32932	32496	40920	33289	33646	33339
299	0	20064	32932	32496	40920	33289	33646	33339
300	0	62288	32932	32496	40920	33289	33646	33339
301	0	39536	32936	32496	40840	33310	33659	33358
302	0	40144	32936	32496	40840	33310	33659	33358
303	0	47920	32924	32572	40880	33345	33648	33352
304	0	29216	32924	32572	40880	33345	33648	33352
305	0	65520	32924	32572	40880	33345	33648	33352
306	0	33344	32892	32592	40888	33312	33666	33382
307	0	29824	32892	32592	40888	33312	33666	33382
308	0	30432	32932	32512	40912	33335	33645	33321
309	0	11888	32932	32512	40912	33335	33645	33321
310	0	39216	32932	32512	40912	33335	33645	33321
311	0	23232	32912	32560	40896	33335	33657	33301
312	0	14048	32912	32560	40896	33335	33657	33301
313	0	14048	32912	32544	40744	33324	33660	33328
314	0	1520	32912	32544	40744	33324	33660	33328
315	0	37584	32912	32544	40744	33324	33660	33328
316	0	28160	32924	32528	40840	33346	33676	33362
317	0	22352	32924	32528	40840	33346	33676	33362
318	0	31824	32904	32540	40896	33313	33644	33325
319	0	22272	32904	32540	40896	33313	33644	33325
320	0	57616	32904	32540	40896	33313	33644	33325
321	0	44496	32908	32528	40864	33319	33635	33294
322	0	42432	32908	32528	40864	33319	33635	33294
323	0	53520	32912	32568	40880	33309	33664	33356
324	0	32864	32912	32568	40880	33309	33664	33356
325	0	57776	32912	32568	40880	33309	33664	33356
326	0	35184	32960	32528	40864	33329	33632	33348
327	0	30096	32960	32528	40864	33329	33632	33348
328	0	38336	32948	32536	40816	33338	33646	33378
329	0	14112	32948	32536	40816	33338	33646	33378
330	0	36400	32948	32536	40816	33338	33646	33378
331	0	17472	32912	32544	40808	33342	33657	33377
332	0	12384	32912	32544	40808	33342	33657	33377
333	0	22832	32956	32552	40864	33329	33638	33342
334	0	3744	32956	32552	40864	33329	33638	33342
335	0	35584	32956	32552	40864	33329	33638	33342
336	0	23712	32896	32560	40808	33322	33659	33332
337	0	22592	32896	32560	40808	33322	33659	33332
338	0	39904	32912	32568	40904	33342	33658	33329
339	0	24592	32912	32568	40904	33342	33658	33329
340	0	55792	32912	32568	40904	33342	33658	33329
341	0	40640	32892	32536	40880	33323	33670	33298
342	0	41200	32892	32536	40880	33323	33670	33298
343	0	55792	32944	32544	40856	33345	33621	33311
344	0	31056	32944	32544	40856	33345	33621	33311
345	0	58128	32944	32544	40856	33345	33621	33311
346	0	38720	32904	32528	40856	33366	33644	33357
347	0	33088	32904	32528	40856	33366	33644	33357
348	0	40368	32912	32596	40864	33318	33662	33310
349	0	12576	32912	32596	40864	33318	33662	33310
350	0	35920	32912	32596	40864	33318	33662	33310
351	0	18464	32920	32620	40848	33341	33656	33307
352	0	11408	32920	32620	40848	33341	33656	33307
353	0	23120	32936	32604	40800	33332	33652	33346
354	0	4688	32936	32604	40800	33332	33652	33346
355	0	32448	32936	32604	40800	33332	33652	33346
356	0	24144	32912	32536	40856	33343	33649	33358
357	0	23184	32912	32536	40856	33343	33649	33358
358	0	40400	32940	32612	40896	33355	33674	33371
359	0	23504	32940	32612	40896	33355	33674	33371
360	0	56240	32940	32612	40896	33355	33674	33371
361	0	41840	32880	32560	40840	33316	33658	33387
362	0	41296	32880	32560	40840	33316	33658	33387
363	0	55552	32880	32552	40840	33358	33652	33378
364	0	34032	32880	32552	40840	33358	33652	33378
365	0	57040	32880	32552	40840	33358	33652	33378
366	0	35408	32952	32568	40880	33356	33658	33356
367	0	29904	32952	32568	40880	33356	33658	33356
368	0	41328	32928	32592	40760	33343	33634	33350
369	0	13232	32928	32592	40760	33343	33634	33350
370	0	34816	32928	32592	40760	33343	33634	33350
371	0	23728	32912	32564	40928	33310	33674	33390
372	0	12288	32912	32564	40928	33310	33674	33390
373	0	25616	32932	32520	40840	33346	33669	33343
374	0	2448	32932	32520	40840	33346	33669	33343
375	0	31744	32932	32520	40840	33346	33669	33343
376	0	23728	32920	32544	40880	33337	33646	33339
377	0	21728	32920	32544	40880	33337	33646	33339
378	0	42080	32924	32600	40800	33330	33654	33386
379	0	24432	32924	32600	40800	33330	33654	33386
380	0	54224	32924	32600	40800	33330	33654	33386
381	0	40992	32916	32568	40832	33329	33686	33361
382	0	40512	32916	32568	40832	33329	33686	33361
383	0	57344	32948	32600	40832	33332	33677	33383
384	0	30160	32948	32600	40832	33332	33677	33383
385	0	58272	32948	32600	40832	33332	33677	33383
386	0	36928	32904	32536	40808	33337	33682	33378
387	0	29536	32904	32536	40808	33337	33682	33378
388	0	41264	32940	32488	40792	33349	33650	33369
389	0	12544	32940	32488	40792	33349	33650	33369
390	0	34672	32940	32488	40792	33349	33650	33369
391	0	19872	32904	32536	40768	33336	33678	33329
392	0	11024	32904	32536	40768	33336	33678	33329
393	0	25904	32908	32584	40856	33334	33643	33364
394	0	4384	32908	32584	40856	33334	33643	33364
395	0	30592	32908	32584	40856	33334	33643	33364
396	0	27584	32872	32536	40936	33339	33655	33314
397	0	23216	32872	32536	40936	33339	33655	33314
398	0	43408	32884	32504	40896	33321	33686	33346
399	0	24592	32884	32504	40896	33321	33686	33346
400	0	53024	32884	32504	40896	33321	33686	33346
401	0	41168	32912	32568	40928	33333	33674	33362
402	0	36496	32912	32568	40928	33333	33674	33362
403	0	64288	32952	32552	40824	33339	33662	33371
404	0	25360	32952	32552	40824	33339	33662	33371
405	0	59168	32952	32552	40824	33339	33662	33371
406	0	34784	32904	32552	40840	33344	33637	33361
407	0	39088	32904	32552	40840	33344	33637	33361
408	0	37488	32904	32600	40864	33327	33654	33394
409	0	10448	32904	32600	40864	33327	33654	33394
410	0	40368	32904	32600	40864	33327	33654	33394
411	0	15232	32884	32576	40872	33344	33635	33369
412	0	20448	32884	32576	40872	33344	33635	33369
413	0	19584	32908	32552	40944	33324	33658	33294
414	0	7344	32908	32552	40944	33324	33658	33294
415	0	26080	32908	32552	40944	33324	33658	33294
416	0	19968	32912	32528	40880	33343	33632	33379
417	0	29184	32912	32528	40880	33343	33632	33379
418	0	42416	32932	32592	40832	33336	33640	33371
419	0	16768	32932	32592	40832	33336	33640	33371
420	0	51088	32932	32592	40832	33336	33640	33371
421	0	48032	32912	32512	40872	33346	33685	33370
422	0	33232	32912	32512	40872	33346	33685	33370
423	0	65520	32932	32568	40816	33338	33640	33360
424	0	25648	32932	32568	40816	33338	33640	33360
425	0	62272	32932	32568	40816	33338	33640	33360
426	0	36736	32964	32512	40880	33318	33672	33342
427	0	33328	32964	32512	40880	33318	33672	33342
428	0	38080	32928	32544	40832	33331	33654	33349
429	0	17984	32928	32544	40832	33331	33654	33349
430	0	29856	32928	32544	40832	33331	33654	33349
431	0	23792	32948	32604	40840	33335	33625	33361
432	0	10368	32948	32604	40840	33335	33625	33361
433	0	31136	32940	32552	40856	33345	33639	33244
434	0	0	32940	32552	40856	33345	33639	33244
435	0	28928	32940	32552	40856	33345	33639	33244
436	0	29520	32960	32528	40840	33328	33630	33304
437	0	25072	32960	32528	40840	33328	33630	33304
438	0	37344	32924	32552	40880	33323	33639	33335
439	0	19808	32924	32552	40880	33323	33639	33335
440	0	53136	32924	32552	40880	33323	33639	33335
441	0	41776	32896	32552	40904	33361	33647	33338
442	0	39840	32896	32552	40904	33361	33647	33338
443	0	58320	32912	32528	40776	33319	33659	33357
444	0	33280	32912	32528	40776	33319	33659	33357
445	0	52752	32912	32528	40776	33319	33659	33357
446	0	38560	32932	32576	40752	33360	33662	33357
447	0	27776	32932	32576	40752	33360	33662	33357
448	0	46016	32900	32560	40848	33351	33665	33394
449	0	12048	32900	32560	40848	33351	33665	33394
450	0	29152	32900	32560	40848	33351	33665	33394
451	0	21120	32904	32520	40896	33321	33668	33381
452	0	9648	32904	32520	40896	33321	33668	33381
453	0	28752	32912	32544	40832	33307	33663	33331
454	0	3680	32912	32544	40832	33307	33663	33331
455	0	25840	32912	32544	40832	33307	33663	33331
456	0	25056	32932	32536	40904	33352	33672	33375
457	0	21632	32932	32536	40904	33352	33672	33375
458	0	44128	32920	32568	40864	33334	33644	33370
459	0	24480	32920	32568	40864	33334	33644	33370
460	0	45184	32920	32568	40864	33334	33644	33370
461	0	44192	32916	32552	40888	33357	33678	33379
462	0	39696	32916	32552	40888	33357	33678	33379
463	0	60064	32892	32536	40896	33354	33667	33393
464	0	23328	32892	32536	40896	33354	33667	33393
465	0	57056	32892	32536	40896	33354	33667	33393
466	0	38768	32876	32528	40896	33307	33657	33374
467	0	27488	32876	32528	40896	33307	33657	33374
468	0	45648	32864	32504	40760	33326	33673	33330
469	0	12448	32864	32504	40760	33326	33673	33330
470	0	26944	32864	32504	40760	33326	33673	33330
471	0	22848	32924	32552	40856	33336	33650	33388
472	0	9344	32924	32552	40856	33336	33650	33388
473	0	30064	32932	32568	40864	33343	33648	33414
474	0	3936	32932	32568	40864	33343	33648	33414
475	0	22944	32932	32568	40864	33343	33648	33414
476	0	26176	32892	32528	40864	33327	33666	33391
477	0	20624	32892	32528	40864	33327	33666	33391
478	0	45568	32904	32552	40856	33343	33656	33356
479	0	24512	32904	32552	40856	33343	33656	33356
480	0	44496	32904	32552	40856	33343	33656	33356
481	0	43040	32924	32512	40792	33366	33676	33315
482	0	39136	32924	32512	40792	33366	33676	33315
483	0	62272	32948	32568	40840	33346	33647	33274
484	0	33088	32948	32568	40840	33346	33647	33274
485	0	47184	32948	32568	40840	33346	33647	33274
486	0	40992	32904	32536	40832	33330	33643	33322
487	0	27984	32904	32536	40832	33330	33643	33322
488	0	47152	32904	32536	40832	33330	33643	33322
489	0	26752	32908	32504	40856	33339	33659	33346
490	0	28576	32908	32504	40856	33339	33659	33346
491	0	23808	32920	32544	40936	33329	33691	33362
492	0	9216	32920	32544	40936	33329	33691	33362
493	0	30368	32920	32544	40936	33329	33691	33362
494	0	16032	32932	32604	40864	33322	33681	33347
495	0	19440	32932	32604	40864	33322	33681	33347
496	0	25632	32936	32520	40880	33329	33655	33407
497	0	20432	32936	32520	40880	33329	33655	33407
498	0	39648	32936	32520	40880	33329	33655	33407
499	0	42384	32924	32520	40864	33315	33663	33321
500	0	41504	32924	32520	40864	33315	33663	33321
501	0	45104	32956	32552	40816	33315	33661	33368
502	0	39296	32956	32552	40816	33315	33661	33368
503	0	55488	32956	32552	40816	33315	33661	33368
504	0	56528	32908	32544	40912	33315	33668	33344
505	0	45040	32908	32544	40912	33315	33668	33344
506	0	39328	32924	32536	40840	33328	33676	33344
507	0	32224	32924	32536	40840	33328	33676	33344
508	0	48640	32924	32536	40840	33328	33676	33344
509	0	28240	32932	32604	40880	33386	33665	33350
510	0	24640	32932	32604	40880	33386	33665	33350
511	0	34720	32900	32512	40880	33338	33666	33359
512	0	7872	32900	32512	40880	33338	33666	33359
513	0	26736	32900	32512	40880	33338	33666	33359
514	0	18800	32948	32592	40848	33332	33690	33371
515	0	19552	32948	32592	40848	33332	33690	33371
516	0	26432	32920	32536	40912	33335	33695	33313
517	0	19600	32920	32536	40912	33335	33695	33313
518	0	51168	32920	32536	40912	33335	33695	33313
519	0	36688	32912	32552	40896	33345	33654	33332
520	0	40336	32912	32552	40896	33345	33654	33332
521	0	38400	32912	32576	40848	33369	33665	33372
522	0	45152	32912	32576	40848	33369	33665	33372
523	0	59872	32912	32576	40848	33369	33665	33372
524	0	48496	32924	32544	40904	33322	33640	33328
525	0	44768	32924	32544	40904	33322	33640	33328
526	0	43760	32916	32536	40936	33337	33646	33336
527	0	26304	32916	32536	40936	33337	33646	33336
528	0	41952	32916	32536	40936	33337	33646	33336
529	0	33200	32900	32560	40768	33298	33659	33358
530	0	19904	32900	32560	40768	33298	33659	33358
531	0	19872	32912	32536	40856	33332	33662	33360
532	0	8496	32912	32536	40856	33332	33662	33360
533	0	30848	32912	32536	40856	33332	33662	33360
534	0	16640	32932	32560	40832	33330	33634	33373
535	0	20976	32932	32560	40832	33330	33634	33373
536	0	27152	32880	32504	40840	33331	33667	33358
537	0	21904	32880	32504	40840	33331	33667	33358
538	0	52960	32880	32504	40840	33331	33667	33358
539	0	35632	32920	32588	40776	33296	33671	33326
540	0	37904	32920	32588	40776	33296	33671	33326
541	0	43136	32896	32600	40784	33315	33688	33371
542	0	34016	32896	32600	40784	33315	33688	33371
543	0	61888	32896	32600	40784	33315	33688	33371
544	0	47760	32920	32572	40872	33339	33659	33373
545	0	42096	32920	32572	40872	33339	33659	33373
546	0	42528	32904	32576	40856	33342	33638	33361
547	0	21600	32904	32576	40856	33342	33638	33361
548	0	48432	32904	32576	40856	33342	33638	33361
549	0	28704	32916	32596	40848	33341	33632	33392
550	0	19264	32916	32596	40848	33341	33632	33392
551	0	26112	32908	32596	40920	33351	33665	33358
552	0	2704	32908	32596	40920	33351	33665	33358
553	0	32624	32908	32596	40920	33351	33665	33358
554	0	15792	32936	32600	40872	33341	33650	33339
555	0	13888	32936	32600	40872	33341	33650	33339
556	0	27888	32920	32504	40912	33363	33668	33351
557	0	14528	32920	32504	40912	33363	33668	33351
558	0	47440	32920	32504	40912	33363	33668	33351
559	0	34384	32920	32504	40784	33343	33674	33334
560	0	34464	32920	32504	40784	33343	33674	33334
561	0	45840	32912	32536	40864	33358	33671	33348
562	0	34736	32912	32536	40864	33358	33671	33348
563	0	63120	32912	32536	40864	33358	33671	33348
564	0	47424	32912	32528	40840	33344	33695	33325
565	0	38688	32912	32528	40840	33344	33695	33325
566	0	43216	32924	32552	40792	33352	33682	33355
567	0	21888	32924	32552	40792	33352	33682	33355
568	0	48800	32924	32552	40792	33352	33682	33355
569	0	28416	32920	32580	40800	33343	33670	33366
570	0	16688	32920	32580	40800	33343	33670	33366
571	0	26064	32892	32552	40888	33311	33656	33366
572	0	3152	32892	32552	40888	33311	33656	33366
573	0	32336	32892	32552	40888	33311	33656	33366
574	0	14976	32936	32536	40848	33367	33658	33354
575	0	13360	32936	32536	40848	33367	33658	33354
576	0	27632	32924	32560	40840	33329	33673	33365
577	0	14800	32924	32560	40840	33329	33673	33365
578	0	45776	32924	32560	40840	33329	33673	33365
579	0	35584	32924	32520	40832	33331	33640	33395
580	0	32608	32924	32520	40832	33331	33640	33395
581	0	45696	32924	32568	40864	33326	33657	33347
582	0	33776	32924	32568	40864	33326	33657	33347
583	0	60000	32924	32568	40864	33326	33657	33347
584	0	52368	32920	32568	40688	33309	33657	33385
585	0	35952	32920	32568	40688	33309	33657	33385
586	0	39920	32920	32520	40888	33337	33661	33309
587	0	25808	32920	32520	40888	33337	33661	33309
588	0	46704	32920	32520	40888	33337	33661	33309
589	0	34432	32892	32520	40928	33327	33668	33351
590	0	13632	32892	32520	40928	33327	33668	33351
591	0	24432	32940	32620	40784	33315	33669	33361
592	0	4272	32940	32620	40784	33315	33669	33361
593	0	28736	32940	32620	40784	33315	33669	33361
594	0	24688	32900	32544	40864	33338	33646	33342
595	0	10416	32900	32544	40864	33338	33646	33342
596	0	27040	32924	32512	40848	33323	33657	33379
597	0	11744	32924	32512	40848	33323	33657	33379
598	0	48800	32924	32512	40848	33323	33657	33379
599	0	35424	32900	32544	40904	33316	33674	33399
600	0	33136	32900	32544	40904	33316	33674	33399
601	0	55472	32940	32512	40856	33336	33663	33375
602	0	33632	32940	32512	40856	33336	33663	33375
603	0	58960	32940	32512	40856	33336	33663	33375
604	0	48208	32924	32576	40888	33376	33683	33386
605	0	44560	32924	32576	40888	33376	33683	33386
606	0	42992	32900	32544	40904	33374	33684	33305
607	0	12720	32900	32544	40904	33374	33684	33305
608	0	48608	32900	32544	40904	33374	33684	33305
609	0	33568	32920	32580	40808	33340	33652	33339
610	0	13184	32920	32580	40808	33340	33652	33339
611	0	25056	32920	32576	40800	33347	33685	33270
612	0	4416	32920	32576	40800	33347	33685	33270
613	0	30512	32920	32576	40800	33347	33685	33270
614	0	24256	32948	32520	40896	33311	33662	33347
615	0	9648	32948	32520	40896	33311	33662	33347
616	0	28144	32920	32528	40864	33326	33661	33350
617	0	10608	32920	32528	40864	33326	33661	33350
618	0	49008	32920	32528	40864	33326	33661	33350
619	0	35376	32944	32552	40864	33355	33694	33380
620	0	36720	32944	32552	40864	33355	33694	33380
621	0	47264	32912	32544	40888	33324	33653	33388
622	0	26000	32912	32544	40888	33324	33653	33388
623	0	65520	32912	32544	40888	33324	33653	33388
624	0	45456	32924	32580	40864	33319	33647	33304
625	0	37296	32924	32580	40864	33319	33647	33304
626	0	45344	32916	32576	40800	33342	33670	33326
627	0	22576	32916	32576	40800	33342	33670	33326
628	0	49840	32916	32576	40800	33342	33670	33326
629	0	28448	32920	32560	40776	33333	33656	33301
630	0	15520	32920	32560	40776	33333	33656	33301
631	0	27200	32904	32596	40888	33343	33654	33342
632	0	4032	32904	32596	40888	33343	33654	33342
633	0	30912	32904	32596	40888	33343	33654	33342
634	0	22256	32904	32504	40816	33318	33670	33322
635	0	10208	32904	32504	40816	33318	33670	33322
636	0	29296	32912	32568	40944	33346	33668	33305
637	0	16352	32912	32568	40944	33346	33668	33305
638	0	45120	32912	32568	40944	33346	33668	33305
639	0	43472	32932	32568	40904	33334	33674	33355
640	0	31904	32932	32568	40904	33334	33674	33355
641	0	46768	32892	32512	40904	33333	33681	33319
642	0	29216	32892	32512	40904	33333	33681	33319
643	0	65520	32892	32512	40904	33333	33681	33319
644	0	47376	32932	32552	40872	33336	33664	33403
645	0	40064	32932	32552	40872	33336	33664	33403
646	0	46736	32940	32580	40872	33314	33655	33402
647	0	14080	32940	32580	40872	33314	33655	33402
648	0	57904	32940	32580	40872	33314	33655	33402
649	0	26112	32892	32604	40936	33339	33669	33375
650	0	15872	32892	32604	40936	33339	33669	33375
651	0	28592	32892	32628	40800	33312	33666	33388
652	0	0	32892	32628	40800	33312	33666	33388
653	0	35552	32892	32628	40800	33312	33666	33388
654	0	15632	32924	32512	40880	33317	33658	33355
655	0	19168	32924	32512	40880	33317	33658	33355
656	0	29952	32900	32580	40848	33335	33653	33349
657	0	15264	32900	32580	40848	33335	33653	33349
658	0	44000	32900	32580	40848	33335	33653	33349
659	0	39376	32960	32596	40888	33327	33682	33348
660	0	31696	32960	32596	40888	33327	33682	33348
661	0	41568	32916	32544	40768	33319	33654	33373
662	0	36288	32916	32544	40768	33319	33654	33373
663	0	64592	32916	32544	40768	33319	33654	33373
664	0	46480	32952	32588	40872	33326	33663	33353
665	0	40960	32952	32588	40872	33326	33663	33353
666	0	47872	32924	32536	40744	33381	33664	33395
667	0	13056	32924	32536	40744	33381	33664	33395
668	0	56960	32924	32536	40744	33381	33664	33395
669	0	27952	32960	32536	40744	33332	33671	33350
670	0	14016	32960	32536	40744	33332	33671	33350
671	0	27744	32892	32512	40856	33355	33680	33325
672	0	3520	32892	32512	40856	33355	33680	33325
673	0	30720	32892	32512	40856	33355	33680	33325
674	0	20416	32928	32568	40920	33355	33650	33363
675	0	11632	32928	32568	40920	33355	33650	33363
676	0	32080	32928	32504	40848	33355	33662	33312
677	0	14576	32928	32504	40848	33355	33662	33312
678	0	44992	32928	32504	40848	33355	33662	33312
679	0	32224	32932	32528	40888	33357	33663	33375
680	0	39440	32932	32528	40888	33357	33663	33375
681	0	52608	32920	32524	40776	33355	33661	33341
682	0	34656	32920	32524	40776	33355	33661	33341
683	0	60352	32920	32524	40776	33355	33661	33341
684	0	51696	32916	32580	40832	33347	33652	33389
685	0	37936	32916	32580	40832	33347	33652	33389
686	0	41712	32924	32552	40896	33327	33644	33356
687	0	21856	32924	32552	40896	33327	33644	33356
688	0	49584	32924	32552	40896	33327	33644	33356
689	0	27280	32928	32584	40880	33329	33671	33361
690	0	20816	32928	32584	40880	33329	33671	33361
691	0	31200	32844	32528	40832	33344	33653	33317
692	0	0	32844	32528	40832	33344	33653	33317
693	0	37712	32844	32528	40832	33344	33653	33317
694	0	14320	32924	32552	40912	33363	33682	33321
695	0	11136	32924	32552	40912	33363	33682	33321
696	0	30160	32928	32520	40800	33358	33634	33358
697	0	15344	32928	32520	40800	33358	33634	33358
698	0	44224	32928	32520	40800	33358	33634	33358
699	0	44112	32912	32536	40904	33337	33673	33353
700	0	33984	32912	32536	40904	33337	33673	33353
701	0	50528	32932	32552	40880	33318	33657	33347
702	0	32320	32932	32552	40880	33318	33657	33347
703	0	64336	32932	32552	40880	33318	33657	33347
704	0	48416	32932	32544	40800	33337	33674	33372
705	0	46384	32932	32544	40800	33337	33674	33372
706	0	50208	32944	32544	40864	33334	33635	33382
707	0	21584	32944	32544	40864	33334	33635	33382
708	0	46576	32944	32544	40864	33334	33635	33382
709	0	32288	32920	32552	40872	33317	33669	33419
710	0	15888	32920	32552	40872	33317	33669	33419
711	0	25680	32916	32528	40856	33335	33646	33400
712	0	1296	32916	32528	40856	33335	33646	33400
713	0	30224	32916	32528	40856	33335	33646	33400
714	0	20144	32916	32528	40768	33341	33671	33391
715	0	12368	32916	32528	40768	33341	33671	33391
716	0	22912	32912	32552	40856	33342	33693	33380
717	0	15472	32912	32552	40856	33342	33693	33380
718	0	42384	32912	32552	40856	33342	33693	33380
719	0	31904	32932	32536	40832	33347	33647	33353
720	0	38336	32932	32536	40832	33347	33647	33353
721	0	52240	32912	32536	40872	33354	33645	33393
722	0	30864	32912	32536	40872	33354	33645	33393
723	0	65520	32912	32536	40872	33354	33645	33393
724	0	47632	32900	32536	40848	33298	33640	33362
725	0	38304	32900	32536	40848	33298	33640	33362
726	0	53104	32880	32488	40840	33303	33665	33362
727	0	21344	32880	32488	40840	33303	33665	33362
728	0	46704	32880	32488	40840	33303	33665	33362
729	0	27968	32928	32560	40776	33329	33632	33368
730	0	15392	32928	32560	40776	33329	33632	33368
731	0	32176	32912	32528	40856	33338	33634	33316
732	0	880	32912	32528	40856	33338	33634	33316
733	0	28736	32912	32528	40856	33338	33634	33316
734	0	15312	32940	32552	40896	33349	33642	33341
735	0	12048	32940	32552	40896	33349	33642	33341
736	0	34032	32952	32560	40808	33343	33659	33331
737	0	12624	32952	32560	40808	33343	33659	33331
738	0	44800	32952	32560	40808	33343	33659	33331
739	0	35792	32956	32512	40800	33326	33654	33357
740	0	44192	32956	32512	40800	33326	33654	33357
741	0	53184	32924	32520	40760	33328	33674	33397
742	0	32688	32924	32520	40760	33328	33674	33397
743	0	58416	32924	32520	40760	33328	33674	33397
744	0	51392	32912	32520	40896	33334	33687	33358
745	0	36400	32912	32520	40896	33334	33687	33358
746	0	44240	32944	32584	40920	33312	33656	33307
747	0	23392	32944	32584	40920	33312	33656	33307
748	0	45248	32944	32584	40920	33312	33656	33307
749	0	27008	32944	32520	40920	33340	33701	33348
750	0	19824	32944	32520	40920	33340	33701	33348
751	0	34912	32912	32568	40912	33356	33655	33324
752	0	0	32912	32568	40912	33356	33655	33324
753	0	26272	32912	32568	40912	33356	33655	33324
754	0	17888	32932	32552	40904	33323	33689	33327
755	0	11680	32932	32552	40904	33323	33689	33327
756	0	29760	32932	32512	40760	33345	33668	33383
757	0	13904	32932	32512	40760	33345	33668	33383
758	0	39680	32932	32512	40760	33345	33668	33383
759	0	43952	32920	32552	40896	33341	33660	33312
760	0	33632	32920	32552	40896	33341	33660	33312
761	0	52864	32932	32560	40936	33343	33667	33355
762	0	34480	32932	32560	40936	33343	33667	33355
763	0	60016	32932	32560	40936	33343	33667	33355
764	0	48448	32896	32496	40904	33345	33643	33319
765	0	47808	32896	32496	40904	33345	33643	33319
766	0	53120	32920	32512	40896	33328	33673	33339
767	0	21232	32920	32512	40896	33328	33673	33339
768	0	43168	32920	32512	40896	33328	33673	33339
769	0	33696	32892	32528	40904	33359	33665	33334
770	0	16992	32892	32528	40904	33359	33665	33334
771	0	26448	32912	32552	40816	33328	33690	33318
772	0	1984	32912	32552	40816	33328	33690	33318
773	0	24160	32912	32552	40816	33328	33690	33318
774	0	18688	32900	32552	40864	33352	33646	33362
775	0	10880	32900	32552	40864	33352	33646	33362
776	0	26688	32920	32528	40872	33324	33674	33349
777	0	15200	32920	32528	40872	33324	33674	33349
778	0	38416	32920	32528	40872	33324	33674	33349
779	0	34304	32896	32544	40888	33328	33671	33349
780	0	38672	32896	32544	40888	33328	33671	33349
781	0	54880	32900	32560	40896	33302	33689	33305
782	0	32768	32900	32560	40896	33302	33689	33305
783	0	56016	32900	32560	40896	33302	33689	33305
784	0	48608	32912	32536	40768	33342	33682	33361
785	0	38320	32912	32536	40768	33342	33682	33361
786	0	52928	32884	32576	40864	33349	33668	33344
787	0	20272	32884	32576	40864	33349	33668	33344
788	0	40272	32884	32576	40864	33349	33668	33344
789	0	30016	32924	32572	40904	33340	33682	33353
790	0	16576	32924	32572	40904	33340	33682	33353
791	0	34176	32924	32588	40856	33357	33662	33350
792	0	656	32924	32588	40856	33357	33662	33350
793	0	23552	32924	32588	40856	33357	33662	33350
794	0	15280	32920	32536	40904	33333	33656	33318
795	0	10864	32920	32536	40904	33333	33656	33318
796	0	30480	32932	32552	40980	33344	33672	33325
797	0	14928	32932	32552	40980	33344	33672	33325
798	0	37328	32932	32552	40980	33344	33672	33325
799	0	38800	32940	32544	40832	33366	33673	33361
800	0	32912	32940	32544	40832	33366	33673	33361
801	0	47696	32932	32520	40920	33306	33680	33323
802	0	32160	32932	32520	40920	33306	33680	33323
803	0	54800	32932	32520	40920	33306	33680	33323
804	0	46816	32956	32572	40816	33281	33654	33341
805	0	43328	32956	32572	40816	33281	33654	33341
806	0	55152	32896	32512	40872	33336	33654	33307
807	0	15264	32896	32512	40872	33336	33654	33307
808	0	50128	32896	32512	40872	33336	33654	33307
809	0	27488	32940	32512	40848	33315	33635	33376
810	0	16752	32940	32512	40848	33315	33635	33376
811	0	31024	32908	32520	40808	33333	33653	33364
812	0	1344	32908	32520	40808	33333	33653	33364
813	0	18576	32908	32520	40808	33333	33653	33364
814	0	17488	32912	32520	40840	33317	33654	33351
815	0	14640	32912	32520	40840	33317	33654	33351
816	0	34880	32912	32520	40840	33317	33654	33351
817	0	23888	32896	32568	40848	33359	33670	33342
818	0	40160	32896	32568	40848	33359	33670	33342
819	0	34288	32904	32536	40800	33320	33657	33359
820	0	45536	32904	32536	40800	33320	33657	33359
821	0	55952	32904	32536	40800	33320	33657	33359
822	0	40656	32916	32512	40872	33329	33674	33296
823	0	55664	32916	32512	40872	33329	33674	33296
824	0	54112	32904	32528	40912	33336	33684	33328
825	0	37616	32904	32528	40912	33336	33684	33328
826	0	50048	32904	32528	40912	33336	33684	33328
827	0	40032	32932	32552	40880	33332	33666	33340
828	0	39648	32932	32552	40880	33332	33666	33340
829	0	33936	32880	32560	40768	33320	33654	33338
830	0	14752	32880	32560	40768	33320	33654	33338
831	0	31632	32880	32560	40768	33320	33654	33338
832	0	20368	32900	32580	40840	33344	33651	33340
833	0	21856	32900	32580	40840	33344	33651	33340
834	0	21856	32884	32528	40972	33318	33672	33295
835	0	13328	32884	32528	40972	33318	33672	33295
836	0	31424	32884	32528	40972	33318	33672	33295
837	0	30672	32888	32544	40888	33344	33660	33346
838	0	34768	32888	32544	40888	33344	33660	33346
839	0	41920	32920	32552	40816	33332	33637	33350
840	0	35840	32920	32552	40816	33332	33637	33350
841	0	55408	32920	32552	40816	33332	33637	33350
842	0	46656	32908	32544	40864	33340	33648	33366
843	0	53888	32908	32544	40864	33340	33648	33366
844	0	48016	32928	32544	40736	33359	33653	33358
845	0	39392	32928	32544	40736	33359	33653	33358
846	0	54576	32928	32544	40736	33359	33653	33358
847	0	37552	32920	32528	40896	33333	33654	33347
848	0	40080	32920	32528	40896	33333	33654	33347
849	0	29056	32920	32600	40816	33311	33634	33370
850	0	17104	32920	32600	40816	33311	33634	33370
851	0	26944	32920	32600	40816	33311	33634	33370
852	0	24208	32892	32564	40792	33315	33653	33303
853	0	20496	32892	32564	40792	33315	33653	33303
854	0	20480	32936	32536	40896	33310	33641	33305
855	0	13904	32936	32536	40896	33310	33641	33305
856	0	29360	32936	32536	40896	33310	33641	33305
857	0	32096	32920	32620	40744	33309	33665	33323
858	0	33600	32920	32620	40744	33309	33665	33323
859	0	31632	32912	32576	40880	33315	33661	33305
860	0	38944	32912	32576	40880	33315	33661	33305
861	0	57328	32912	32576	40880	33315	33661	33305
862	0	39440	32960	32552	40824	33338	33668	33328
863	0	62736	32960	32552	40824	33338	33668	33328
864	0	47472	32904	32568	40776	33332	33659	33340
865	0	39312	32904	32568	40776	33332	33659	33340
866	0	55104	32904	32568	40776	33332	33659	33340
867	0	30672	32900	32608	40736	33342	33685	33355
868	0	40864	32900	32608	40736	33342	33685	33355
869	0	28352	32916	32612	40880	33332	33645	33373
870	0	22960	32916	32612	40880	33332	33645	33373
871	0	41136	32916	32612	40880	33332	33645	33373
872	0	19872	32944	32588	40956	33338	33663	33364
873	0	18368	32944	32588	40956	33338	33663	33364
874	0	15424	32924	32568	40768	33337	33630	33270
875	0	19824	32924	32568	40768	33337	33630	33270
876	0	36016	32924	32568	40768	33337	33630	33270
877	0	24192	32896	32544	40840	33331	33660	33341
878	0	42064	32896	32544	40840	33331	33660	33341
879	0	34096	32956	32528	40824	33345	33640	33336
880	0	35008	32956	32528	40824	33345	33640	33336
881	0	56000	32956	32528	40824	33345	33640	33336
882	0	41360	32904	32552	40808	33339	33650	33362
883	0	53408	32904	32552	40808	33339	33650	33362
884	0	47552	32892	32560	40880	33339	33656	33347
885	0	28400	32892	32560	40880	33339	33656	33347
886	0	56912	32892	32560	40880	33339	33656	33347
887	0	38480	32904	32544	40840	33326	33653	33344
888	0	35664	32904	32544	40840	33326	33653	33344
889	0	28512	32892	32512	40864	33322	33659	33344
890	0	13280	32892	32512	40864	33322	33659	33344
891	0	36128	32892	32512	40864	33322	33659	33344
892	0	21184	32960	32552	40856	33326	33671	33339
893	0	17248	32960	32552	40856	33326	33671	33339
894	0	15760	32932	32544	40792	33362	33648	33313
895	0	0	32932	32544	40792	33362	33648	33313
896	0	37152	32932	32544	40792	33362	33648	33313
897	0	29792	32928	32568	40912	33309	33637	33308
898	0	30544	32928	32568	40912	33309	33637	33308
899	0	34880	32912	32520	40864	33306	33662	33356
900	0	22656	32912	32520	40864	33306	33662	33356
901	0	58416	32912	32520	40864	33306	33662	33356
902	0	47008	32884	32572	40928	33358	33621	33352
903	0	48384	32884	32572	40928	33358	33621	33352
904	0	48752	32920	32576	40904	33337	33669	33372
905	0	28528	32920	32576	40904	33337	33669	33372
906	0	59280	32920	32576	40904	33337	33669	33372
907	0	37344	32912	32568	40808	33342	33634	33405
908	0	33216	32912	32568	40808	33342	33634	33405
909	0	30464	32904	32520	40912	33346	33649	33377
910	0	10304	32904	32520	40912	33346	33649	33377
911	0	38400	32904	32520	40912	33346	33649	33377
912	0	14192	32956	32552	40864	33341	33660	33346
913	0	22080	32956	32552	40864	33341	33660	33346
914	0	14128	32932	32552	40816	33323	33680	33363
915	0	416	32932	32552	40816	33323	33680	33363
916	0	34208	32932	32552	40816	33323	33680	33363
917	0	29456	32904	32568	40872	33354	33674	33369
918	0	27440	32904	32568	40872	33354	33674	33369
919	0	43024	32920	32536	40880	33321	33670	33397
920	0	22992	32920	32536	40880	33321	33670	33397
921	0	56960	32920	32536	40880	33321	33670	33397
922	0	46928	32932	32564	40888	33334	33639	33366
923	0	45408	32932	32564	40888	33334	33639	33366
924	0	51936	32892	32576	40800	33325	33666	33354
925	0	29904	32892	32576	40800	33325	33666	33354
926	0	49664	32892	32576	40800	33325	33666	33354
927	0	46784	32920	32536	40840	33312	33642	33338
928	0	31744	32920	32536	40840	33312	33642	33338
929	0	29984	32924	32612	40864	33331	33640	33365
930	0	6400	32924	32612	40864	33331	33640	33365
931	0	28288	32924	32612	40864	33331	33640	33365
932	0	21648	32880	32584	40824	33379	33655	33360
933	0	12512	32880	32584	40824	33379	33655	33360
934	0	14304	32940	32568	40880	33326	33677	33288
935	0	0	32940	32568	40880	33326	33677	33288
936	0	41248	32940	32568	40880	33326	33677	33288
937	0	29184	32968	32560	40752	33326	33659	33354
938	0	25120	32968	32560	40752	33326	33659	33354
939	0	32976	32960	32496	40864	33339	33623	33373
940	0	27712	32960	32496	40864	33339	33623	33373
941	0	59344	32960	32496	40864	33339	33623	33373
942	0	40304	32932	32536	40824	33317	33656	33328
943	0	53408	32932	32536	40824	33317	33656	33328
944	0	49296	32904	32568	40832	33328	33657	33368
945	0	29360	32904	32568	40832	33328	33657	33368
946	0	56912	32904	32568	40832	33328	33657	33368
947	0	38576	32924	32512	40792	33304	33647	33351
948	0	29472	32924	32512	40792	33304	33647	33351
949	0	32240	32920	32568	40848	33305	33657	33359
950	0	6880	32920	32568	40848	33305	33657	33359
951	0	37872	32920	32568	40848	33305	33657	33359
952	0	19184	32940	32592	40824	33351	33660	33354
953	0	12704	32940	32592	40824	33351	33660	33354
954	0	17776	32920	32552	40808	33326	33682	33334
955	0	0	32920	32552	40808	33326	33682	33334
956	0	38832	32920	32552	40808	33326	33682	33334
957	0	27760	32932	32560	40872	33307	33671	33352
958	0	25808	32932	32560	40872	33307	33671	33352
959	0	36128	32928	32488	40872	33346	33681	33325
960	0	24864	32928	32488	40872	33346	33681	33325
961	0	60304	32928	32488	40872	33346	33681	33325
962	0	41216	32912	32512	40872	33330	33652	33350
963	0	53632	32912	32512	40872	33330	33652	33350
964	0	50192	32904	32544	40784	33347	33649	33371
965	0	28640	32904	32544	40784	33347	33649	33371
966	0	58320	32904	32544	40784	33347	33649	33371
967	0	32976	32892	32576	40880	33336	33667	33350
968	0	30912	32892	32576	40880	33336	33667	33350
969	0	32096	32888	32536	40872	33330	33659	33373
970	0	8256	32888	32536	40872	33330	33659	33373
971	0	39424	32888	32536	40872	33330	33659	33373
972	0	21024	32940	32528	40920	33339	33665	33338
973	0	11344	32940	32528	40920	33339	33665	33338
974	0	16096	32908	32544	40912	33346	33635	33327
975	0	4800	32908	32544	40912	33346	33635	33327
976	0	38512	32908	32544	40912	33346	33635	33327
977	0	20448	32940	32560	40912	33342	33662	33364
978	0	26480	32940	32560	40912	33342	33662	33364
979	0	38384	32920	32520	40824	33302	33642	33317
980	0	21952	32920	32520	40824	33302	33642	33317
981	0	57632	32920	32520	40824	33302	33642	33317
982	0	40672	32940	32560	40928	33304	33669	33350
983	0	50240	32940	32560	40928	33304	33669	33350
984	0	48688	32904	32520	40856	33340	33655	33362
985	0	29120	32904	32520	40856	33340	33655	33362
986	0	57104	32904	32520	40856	33340	33655	33362
987	0	32496	32924	32520	40856	33340	33682	33355
988	0	39360	32924	32520	40856	33340	33682	33355
989	0	31920	32944	32520	40792	33316	33659	33375
990	0	7920	32944	32520	40792	33316	33659	33375
991	0	37376	32944	32520	40792	33316	33659	33375
992	0	14544	32944	32556	40712	33360	33673	33322
993	0	12992	32944	32556	40712	33360	33673	33322
994	0	18576	32924	32528	40784	33323	33672	33288
995	0	0	32924	32528	40784	33323	33672	33288
996	0	40576	32924	32528	40784	33323	33672	33288
997	0	27536	32912	32568	40784	33348	33687	33335
998	0	24816	32912	32568	40784	33348	33687	33335
999	0	37008	32908	32544	40904	33352	33655	33392
1000	0	21792	32908	32544	40904	33352	33655	33392
1001	0	58224	32908	32544	40904	33352	33655	33392
1002	0	45392	32968	32536	40896	33349	33670	33362
1003	0	46656	32968	32536	40896	33349	33670	33362
1004	0	51040	32944	32520	40752	33338	33637	33337
1005	0	29248	32944	32520	40752	33338	33637	33337
1006	0	56688	32944	32520	40752	33338	33637	33337
1007	0	39856	32940	32596	40792	33322	33650	33367
1008	0	30112	32940	32596	40792	33322	33650	33367
1009	0	32608	32900	32544	40792	33319	33656	33300
1010	0	6992	32900	32544	40792	33319	33656	33300
1011	0	37136	32900	32544	40792	33319	33656	33300
1012	0	15664	32904	32536	40856	33335	33672	33317
1013	0	14880	32904	32536	40856	33335	33672	33317
1014	0	19744	32904	32580	40848	33302	33681	33298
1015	0	96	32904	32580	40848	33302	33681	33298
1016	0	42608	32904	32580	40848	33302	33681	33298
1017	0	28272	32952	32560	40840	33315	33673	33320
1018	0	24992	32952	32560	40840	33315	33673	33320
1019	0	36848	32920	32544	40808	33321	33638	33344
1020	0	26288	32920	32544	40808	33321	33638	33344
1021	0	58928	32920	32544	40808	33321	33638	33344
1022	0	41456	32956	32604	40920	33321	33667	33356
1023	0	43760	32956	32604	40920	33321	33667	33356
1024	0	58272	32960	32568	40928	33318	33648	33377
1025	0	27616	32960	32568	40928	33318	33648	33377
1026	0	56528	32960	32568	40928	33318	33648	33377
1027	0	35424	32892	32544	40848	33325	33660	33373
1028	0	35424	32892	32544	40848	33325	33660	33373
1029	0	34288	32924	32576	40872	33342	33644	33353
1030	0	5904	32924	32576	40872	33342	33644	33353
1031	0	36880	32924	32576	40872	33342	33644	33353
1032	0	16624	32916	32504	40864	33345	33642	33312
1033	0	18784	32916	32504	40864	33345	33642	33312
1034	0	19504	32928	32560	40896	33323	33643	33384
1035	0	0	32928	32560	40896	33323	33643	33384
1036	0	31536	32928	32560	40896	33323	33643	33384
1037	0	28880	32928	32560	40848	33315	33645	33312
1038	0	25488	32928	32560	40848	33315	33645	33312
1039	0	45456	32920	32568	40800	33296	33663	33371
1040	0	20432	32920	32568	40800	33296	33663	33371
1041	0	58896	32920	32568	40800	33296	33663	33371
1042	0	47232	32936	32548	40856	33344	33697	33351
1043	0	43072	32936	32548	40856	33344	33697	33351
1044	0	55808	32912	32544	40912	33322	33658	33368
1045	0	28144	32912	32544	40912	33322	33658	33368
1046	0	49232	32912	32544	40912	33322	33658	33368
1047	0	46864	32908	32568	40848	33315	33646	33382
1048	0	28720	32908	32568	40848	33315	33646	33382
1049	0	35056	32892	32560	40824	33321	33658	33402
1050	0	5984	32892	32560	40824	33321	33658	33402
1051	0	37008	32892	32560	40824	33321	33658	33402
1052	0	22016	32952	32604	40840	33353	33656	33374
1053	0	13760	32952	32604	40840	33353	33656	33374
1054	0	21920	32920	32596	40856	33351	33678	33316
1055	0	0	32920	32596	40856	33351	33678	33316
1056	0	36816	32920	32596	40856	33351	33678	33316
1057	0	28288	32924	32596	40824	33298	33690	33332
1058	0	26016	32924	32596	40824	33298	33690	33332
1059	0	38544	32924	32580	40800	33339	33665	33303
1060	0	20368	32924	32580	40800	33339	33665	33303
1061	0	50880	32924	32580	40800	33339	33665	33303
1062	0	47712	32888	32592	40864	33365	33664	33282
1063	0	43360	32888	32592	40864	33365	33664	33282
1064	0	56640	32904	32576	40808	33336	33689	33383
1065	0	26384	32904	32576	40808	33336	33689	33383
1066	0	58160	32904	32576	40808	33336	33689	33383
1067	0	38640	32932	32544	40848	33351	33695	33338
1068	0	27552	32932	32544	40848	33351	33695	33338
1069	0	40560	32924	32504	40744	33345	33665	33355
1070	0	6032	32924	32504	40744	33345	33665	33355
1071	0	27888	32924	32504	40744	33345	33665	33355
1072	0	28112	32912	32536	40856	33340	33658	33343
1073	0	12528	32912	32536	40856	33340	33658	33343
1074	0	20896	32908	32612	40792	33313	33655	33366
1075	0	0	32908	32612	40792	33313	33655	33366
1076	0	29024	32908	32612	40792	33313	33655	33366
1077	0	29424	32924	32568	40912	33371	33678	33384
1078	0	24720	32924	32568	40912	33371	33678	33384
1079	0	40720	32920	32480	40760	33313	33644	33375
1080	0	28944	32920	32480	40760	33313	33644	33375
1081	0	54736	32920	32480	40760	33313	33644	33375
1082	0	46896	32956	32576	40784	33334	33660	33371
1083	0	41840	32956	32576	40784	33334	33660	33371
1084	0	58272	32912	32512	40904	33323	33663	33336
1085	0	27680	32912	32512	40904	33323	33663	33336
1086	0	49312	32912	32512	40904	33323	33663	33336
1087	0	46192	32912	32568	40856	33339	33632	33337
1088	0	28720	32912	32568	40856	33339	33632	33337
1089	0	36640	32892	32572	40800	33345	33650	33391
1090	0	2912	32892	32572	40800	33345	33650	33391
1091	0	29056	32892	32572	40800	33345	33650	33391
1092	0	23728	32904	32568	40864	33311	33653	33346
1093	0	9760	32904	32568	40864	33311	33653	33346
1094	0	27872	32912	32560	40888	33286	33649	33300
1095	0	0	32912	32560	40888	33286	33649	33300
1096	0	33584	32912	32560	40888	33286	33649	33300
1097	0	28464	32932	32560	40848	33353	33652	33317
1098	0	26160	32932	32560	40848	33353	33652	33317
1099	0	39392	32928	32552	40896	33330	33650	33326
1100	0	23072	32928	32552	40896	33330	33650	33326
1101	0	55168	32928	32552	40896	33330	33650	33326
1102	0	48880	32912	32580	40872	33318	33658	33366
1103	0	43856	32912	32580	40872	33318	33658	33366
1104	0	55344	32912	32604	40880	33326	33651	33333
1105	0	29056	32912	32604	40880	33326	33651	33333
1106	0	55664	32912	32604	40880	33326	33651	33333
1107	0	40016	32912	32520	40880	33334	33686	33379
1108	0	29424	32912	32520	40880	33334	33686	33379
1109	0	38032	32904	32568	40784	33368	33659	33379
1110	0	5392	32904	32568	40784	33368	33659	33379
1111	0	27840	32904	32568	40784	33368	33659	33379
1112	0	22400	32936	32552	40936	33317	33669	33392
1113	0	9872	32936	32552	40936	33317	33669	33392
1114	0	26752	32920	32520	40912	33327	33677	33329
1115	0	0	32920	32520	40912	33327	33677	33329
1116	0	32096	32920	32520	40912	33327	33677	33329
1117	0	29840	32948	32552	40912	33333	33684	33330
1118	0	22928	32948	32552	40912	33333	33684	33330
1119	0	43984	32904	32536	40880	33345	33689	33289
1120	0	20800	32904	32536	40880	33345	33689	33289
1121	0	44528	32904	32536	40880	33345	33689	33289
1122	0	55008	32908	32536	40896	33328	33662	33333
1123	0	44336	32908	32536	40896	33328	33662	33333
1124	0	53680	32884	32512	40840	33326	33687	33367
1125	0	30160	32884	32512	40840	33326	33687	33367
1126	0	45904	32884	32512	40840	33326	33687	33367
1127	0	42656	32896	32560	40832	33360	33680	33346
1128	0	23936	32896	32560	40832	33360	33680	33346
1129	0	40624	32912	32504	40848	33351	33666	33352
1130	0	9904	32912	32504	40848	33351	33666	33352
1131	0	31504	32912	32504	40848	33351	33666	33352
1132	0	20000	32940	32552	40768	33358	33687	33380
1133	0	8416	32940	32552	40768	33358	33687	33380
1134	0	27312	32864	32552	40864	33355	33669	33404
1135	0	0	32864	32552	40864	33355	33669	33404
1136	0	22832	32864	32552	40864	33355	33669	33404
1137	0	36464	32932	32528	40888	33353	33637	33314
1138	0	26384	32932	32528	40888	33353	33637	33314
1139	0	39008	32912	32560	40840	33335	33686	33333
1140	0	27424	32912	32560	40840	33335	33686	33333
1141	0	50704	32912	32560	40840	33335	33686	33333
1142	0	48944	32936	32592	40888	33343	33647	33322
1143	0	40976	32936	32592	40888	33343	33647	33322
1144	0	57184	32912	32568	40840	33326	33639	33376
1145	0	30080	32912	32568	40840	33326	33639	33376
1146	0	50768	32912	32568	40840	33326	33639	33376
1147	0	40976	32960	32568	40904	33332	33651	33356
1148	0	25696	32960	32568	40904	33332	33651	33356
1149	0	42240	32928	32512	40768	33355	33645	33331
1150	0	8464	32928	32512	40768	33355	33645	33331
1151	0	30928	32928	32512	40768	33355	33645	33331
1152	0	20960	32900	32544	40816	33336	33640	33391
1153	0	9904	32900	32544	40816	33336	33640	33391
1154	0	23536	32912	32544	40896	33340	33653	33332
1155	0	1280	32912	32544	40896	33340	33653	33332
1156	0	28224	32912	32544	40896	33340	33653	33332
1157	0	28768	32860	32568	40872	33350	33659	33337
1158	0	26752	32860	32568	40872	33350	33659	33337
1159	0	40992	32908	32568	40888	33358	33643	33313
1160	0	23664	32908	32568	40888	33358	33643	33313
1161	0	49760	32908	32568	40888	33358	33643	33313
1162	0	44800	32956	32560	40736	33346	33668	33408
1163	0	49200	32956	32560	40736	33346	33668	33408
1164	0	56768	32896	32536	40848	33341	33661	33372
1165	0	29696	32896	32536	40848	33341	33661	33372
1166	0	48912	32896	32536	40848	33341	33661	33372
1167	0	40240	32952	32544	40912	33340	33680	33359
1168	0	30624	32952	32544	40912	33340	33680	33359
1169	0	39744	32912	32552	40832	33306	33674	33332
1170	0	15040	32912	32552	40832	33306	33674	33332
1171	0	32288	32912	32552	40832	33306	33674	33332
1172	0	22432	32900	32552	40832	33333	33700	33311
1173	0	12448	32900	32552	40832	33333	33700	33311
1174	0	23872	32900	32552	40832	33333	33700	33311
1175	0	15536	32900	32544	40808	33312	33661	33315
1176	0	27504	32900	32544	40808	33312	33661	33315
1177	0	27232	32932	32560	40920	33325	33635	33330
1178	0	34816	32932	32560	40920	33325	33635	33330
1179	0	40496	32932	32560	40920	33325	33635	33330
1180	0	39520	32884	32536	40924	33363	33651	33381
1181	0	47328	32884	32536	40924	33363	33651	33381
1182	0	45808	32932	32544	40856	33295	33679	33326
1183	0	45696	32932	32544	40856	33295	33679	33326
1184	0	58048	32932	32544	40856	33295	33679	33326
1185	0	40176	32892	32544	40864	33326	33667	33383
1186	0	53776	32892	32544	40864	33326	33667	33383
1187	0	42208	32924	32560	40864	33333	33647	33341
1188	0	29744	32924	32560	40864	33333	33647	33341
1189	0	39424	32924	32560	40864	33333	33647	33341
1190	0	24800	32916	32612	40872	33349	33662	33378
1191	0	28624	32916	32612	40872	33349	33662	33378
1192	0	20816	32912	32568	40864	33340	33644	33389
1193	0	19472	32912	32568	40864	33340	33644	33389
1194	0	23360	32912	32568	40864	33340	33644	33389
1195	0	16624	32940	32584	40888	33360	33660	33318
1196	0	17616	32940	32584	40888	33360	33660	33318
1197	0	31168	32908	32544	40888	33355	33628	33403
1198	0	27712	32908	32544	40888	33355	33628	33403
1199	0	41776	32908	32544	40888	33355	33628	33403
1200	0	32816	32912	32544	40896	33329	33633	33393
1201	0	52672	32912	32544	40896	33329	33633	33393
1202	0	48096	32920	32544	40856	33312	33644	33380
1203	0	45024	32920	32544	40856	33312	33644	33380
1204	0	55632	32920	32544	40856	33312	33644	33380
1205	0	48720	32912	32552	40816	33347	33681	33321
1206	0	49216	32912	32552	40816	33347	33681	33321
1207	0	42432	32920	32544	40896	33410	33676	33327
1208	0	28368	32920	32544	40896	33410	33676	33327
1209	0	41312	32920	32544	40896	33410	33676	33327
1210	0	25552	32932	32520	40776	33369	33681	33370
1211	0	26752	32932	32520	40776	33369	33681	33370
1212	0	23200	32944	32604	40856	33350	33675	33427
1213	0	12048	32944	32604	40856	33350	33675	33427
1214	0	25872	32944	32604	40856	33350	33675	33427
1215	0	15776	32920	32488	40928	33356	33653	33392
1216	0	24640	32920	32488	40928	33356	33653	33392
1217	0	30000	32932	32552	40840	33350	33646	33381
1218	0	31472	32932	32552	40840	33350	33646	33381
1219	0	41920	32932	32552	40840	33350	33646	33381
1220	0	37296	32892	32520	40824	33343	33657	33332
1221	0	44304	32892	32520	40824	33343	33657	33332
1222	0	46816	32896	32536	40872	33347	33670	33393
1223	0	35664	32896	32536	40872	33347	33670	33393
1224	0	60448	32896	32536	40872	33347	33670	33393
1225	0	39824	32912	32568	40888	33349	33632	33321
1226	0	50464	32912	32568	40888	33349	33632	33321
1227	0	41568	32900	32568	40904	33326	33681	33368
1228	0	19648	32900	32568	40904	33326	33681	33368
1229	0	40720	32900	32568	40904	33326	33681	33368
1230	0	26096	32956	32520	40776	33337	33690	33369
1231	0	24720	32956	32520	40776	33337	33690	33369
1232	0	21856	32944	32520	40864	33321	33681	33329
1233	0	0	32944	32520	40864	33321	33681	33329
1234	0	32544	32944	32520	40864	33321	33681	33329
1235	0	16720	32924	32544	40888	33349	33647	33315
1236	0	18576	32924	32544	40888	33349	33647	33315
1237	0	28832	32900	32520	40872	33350	33647	33357
1238	0	19248	32900	32520	40872	33350	33647	33357
1239	0	44432	32900	32520	40872	33350	33647	33357
1240	0	38336	32888	32576	40848	33350	33687	33344
1241	0	40384	32888	32576	40848	33350	33687	33344
1242	0	47840	32920	32480	40880	33319	33695	33351
1243	0	33136	32920	32480	40880	33319	33695	33351
1244	0	58944	32920	32480	40880	33319	33695	33351
1245	0	49264	32936	32576	40864	33319	33680	33349
1246	0	42784	32936	32576	40864	33319	33680	33349
1247	0	41552	32952	32520	40792	33347	33677	33374
1248	0	28928	32952	32520	40792	33347	33677	33374
1249	0	42688	32952	32520	40792	33347	33677	33374
1250	0	27392	32912	32580	40964	33334	33667	33348
1251	0	19424	32912	32580	40964	33334	33667	33348
1252	0	23376	32920	32624	40856	33321	33673	33360
1253	0	1776	32920	32624	40856	33321	33673	33360
1254	0	28000	32920	32624	40856	33321	33673	33360
1255	0	17440	32872	32572	40872	33345	33657	33384
1256	0	16368	32872	32572	40872	33345	33657	33384
1257	0	30880	32928	32552	40848	33334	33662	33386
1258	0	12992	32928	32552	40848	33334	33662	33386
1259	0	45312	32928	32552	40848	33334	33662	33386
1260	0	37840	32944	32560	40880	33346	33639	33371
1261	0	38240	32944	32560	40880	33346	33639	33371
1262	0	49472	32892	32568	40832	33349	33667	33351
1263	0	31392	32892	32568	40832	33349	33667	33351
1264	0	61488	32892	32568	40832	33349	33667	33351
1265	0	47424	32892	32536	40872	33369	33668	33382
1266	0	32928	32892	32536	40872	33369	33668	33382
1267	0	42912	32924	32604	40904	33357	33673	33340
1268	0	21312	32924	32604	40904	33357	33673	33340
1269	0	44368	32924	32604	40904	33357	33673	33340
1270	0	27584	32920	32576	40872	33354	33661	33406
1271	0	18464	32920	32576	40872	33354	33661	33406
1272	0	24864	32924	32544	40928	33327	33673	33340
1273	0	0	32924	32544	40928	33327	33673	33340
1274	0	32288	32924	32544	40928	33327	33673	33340
1275	0	17936	32912	32564	40784	33309	33687	33354
1276	0	8160	32912	32564	40784	33309	33687	33354
1277	0	38928	32916	32576	40872	33319	33687	33376
1278	0	14304	32916	32576	40872	33319	33687	33376
1279	0	43280	32916	32576	40872	33319	33687	33376
1280	0	37936	32920	32568	40832	33333	33677	33311
1281	0	31280	32920	32568	40832	33333	33677	33311
1282	0	52592	32920	32512	40856	33359	33654	33357
1283	0	33472	32920	32512	40856	33359	33654	33357
1284	0	59568	32920	32512	40856	33359	33654	33357
1285	0	56752	32912	32596	40880	33356	33640	33288
1286	0	39408	32912	32596	40880	33356	33640	33288
1287	0	43584	32896	32584	40824	33330	33638	33230
1288	0	20672	32896	32584	40824	33330	33638	33230
1289	0	42976	32896	32584	40824	33330	33638	33230
1290	0	29216	32932	32544	40952	33341	33660	33343
1291	0	18800	32932	32544	40952	33341	33660	33343
1292	0	25136	32920	32504	40964	33350	33667	33356
1293	0	1856	32920	32504	40964	33350	33667	33356
1294	0	25392	32920	32504	40964	33350	33667	33356
1295	0	22352	32932	32528	40912	33320	33658	33363
1296	0	14624	32932	32528	40912	33320	33658	33363
1297	0	31584	32932	32584	40824	33313	33645	33355
1298	0	12432	32932	32584	40824	33313	33645	33355
1299	0	49568	32932	32584	40824	33313	33645	33355
1300	0	37936	32932	32576	40832	33343	33647	33348
1301	0	30176	32932	32576	40832	33343	33647	33348
1302	0	58464	32936	32528	40688	33337	33647	33338
1303	0	33408	32936	32528	40688	33337	33647	33338
1304	0	60688	32936	32528	40688	33337	33647	33338
1305	0	47120	32892	32520	40920	33351	33683	33368
1306	0	41488	32892	32520	40920	33351	33683	33368
1307	0	44160	32996	32552	40792	33333	33698	33335
1308	0	21744	32996	32552	40792	33333	33698	33335
1309	0	45040	32996	32552	40792	33333	33698	33335
1310	0	28128	32960	32504	40864	33314	33646	33360
1311	0	18544	32960	32504	40864	33314	33646	33360
1312	0	26976	32920	32536	40904	33338	33647	33359
1313	0	2208	32920	32536	40904	33338	33647	33359
1314	0	28336	32920	32536	40904	33338	33647	33359
1315	0	18624	32936	32520	40816	33368	33660	33338
1316	0	15568	32936	32520	40816	33368	33660	33338
1317	0	32176	32920	32552	40832	33349	33659	33330
1318	0	16480	32920	32552	40832	33349	33659	33330
1319	0	48912	32920	32552	40832	33349	33659	33330
1320	0	40320	32940	32536	40880	33355	33672	33309
1321	0	28368	32940	32536	40880	33355	33672	33309
1322	0	60096	32912	32552	40888	33348	33653	33317
1323	0	32912	32912	32552	40888	33348	33653	33317
1324	0	61376	32912	32552	40888	33348	33653	33317
1325	0	48224	32900	32544	40920	33348	33678	33346
1326	0	31744	32900	32544	40920	33348	33678	33346
1327	0	49872	32972	32528	40864	33363	33645	33355
1328	0	20608	32972	32528	40864	33363	33645	33355
1329	0	40496	32972	32528	40864	33363	33645	33355
1330	0	34000	32912	32528	40896	33352	33666	33345
1331	0	20128	32912	32528	40896	33352	33666	33345
1332	0	26688	32920	32592	40880	33323	33657	33361
1333	0	0	32920	32592	40880	33323	33657	33361
1334	0	27600	32920	32592	40880	33323	33657	33361
1335	0	17920	32936	32552	40816	33332	33654	33377
1336	0	16080	32936	32552	40816	33332	33654	33377
1337	0	32304	32924	32568	40848	33328	33663	33346
1338	0	23728	32924	32568	40848	33328	33663	33346
1339	0	44816	32924	32568	40848	33328	33663	33346
1340	0	38720	32932	32552	40792	33347	33660	33392
1341	0	38096	32932	32552	40792	33347	33660	33392
1342	0	52304	32916	32544	40872	33335	33646	33369
1343	0	37104	32916	32544	40872	33335	33646	33369
1344	0	63616	32916	32544	40872	33335	33646	33369
1345	0	39600	32968	32504	40832	33332	33650	33370
1346	0	43296	32968	32504	40832	33332	33650	33370
1347	0	46160	32912	32528	40848	33356	33654	33353
1348	0	20672	32912	32528	40848	33356	33654	33353
1349	0	44080	32912	32528	40848	33356	33654	33353
1350	0	24272	32876	32572	40864	33331	33660	33350
1351	0	18864	32876	32572	40864	33331	33660	33350
1352	0	29936	32912	32536	40904	33322	33670	33292
1353	0	11424	32912	32536	40904	33322	33670	33292
1354	0	27808	32912	32536	40904	33322	33670	33292
1355	0	18736	32924	32488	40952	33335	33659	33339
1356	0	16576	32924	32488	40952	33335	33659	33339
1357	0	33824	32904	32544	40864	33352	33686	33362
1358	0	14736	32904	32544	40864	33352	33686	33362
1359	0	43920	32904	32544	40864	33352	33686	33362
1360	0	39120	32956	32528	40896	33340	33699	33365
1361	0	36784	32956	32528	40896	33340	33699	33365
1362	0	52192	32904	32552	40840	33347	33669	33328
1363	0	32992	32904	32552	40840	33347	33669	33328
1364	0	62080	32904	32552	40840	33347	33669	33328
1365	0	48096	32912	32520	40864	33359	33650	33305
1366	0	40736	32912	32520	40864	33359	33650	33305
1367	0	45792	32884	32536	40896	33348	33657	33314
1368	0	23072	32884	32536	40896	33348	33657	33314
1369	0	46752	32884	32536	40896	33348	33657	33314
1370	0	21440	32904	32572	40848	33350	33677	33326
1371	0	21680	32904	32572	40848	33350	33677	33326
1372	0	27936	32912	32512	41052	33332	33673	33325
1373	0	704	32912	32512	41052	33332	33673	33325
1374	0	26816	32912	32512	41052	33332	33673	33325
1375	0	11840	32928	32568	40848	33329	33680	33380
1376	0	17024	32928	32568	40848	33329	33680	33380
1377	0	35008	32928	32604	40840	33329	33662	33363
1378	0	24688	32928	32604	40840	33329	33662	33363
1379	0	44096	32928	32604	40840	33329	33662	33363
1380	0	38416	32928	32572	40880	33333	33662	33368
1381	0	38624	32928	32572	40880	33333	33662	33368
1382	0	52576	32932	32560	40856	33352	33686	33389
1383	0	36816	32932	32560	40856	33352	33686	33389
1384	0	61232	32932	32560	40856	33352	33686	33389
1385	0	41232	32912	32512	40880	33332	33675	33352
1386	0	48064	32912	32512	40880	33332	33675	33352
1387	0	51056	32900	32520	40848	33339	33636	33322
1388	0	21392	32900	32520	40848	33339	33636	33322
1389	0	41952	32900	32520	40848	33339	33636	33322
1390	0	22832	32916	32560	40792	33345	33667	33404
1391	0	18848	32916	32560	40792	33345	33667	33404
1392	0	29856	32912	32544	40896	33328	33660	33344
1393	0	4192	32912	32544	40896	33328	33660	33344
1394	0	26320	32912	32544	40896	33328	33660	33344
1395	0	9536	32904	32528	40880	33333	33671	33331
1396	0	18768	32904	32528	40880	33333	33671	33331
1397	0	34048	32924	32504	40864	33344	33674	33314
1398	0	14896	32924	32504	40864	33344	33674	33314
1399	0	41168	32924	32504	40864	33344	33674	33314
1400	0	29552	32912	32528	40896	33337	33685	33368
1401	0	41904	32912	32528	40896	33337	33685	33368
1402	0	52640	32908	32536	40864	33334	33641	33344
1403	0	34016	32908	32536	40864	33334	33641	33344
1404	0	59200	32908	32536	40864	33334	33641	33344
1405	0	42544	32912	32528	40888	33331	33643	33387
1406	0	42496	32912	32528	40888	33331	33643	33387
1407	0	49632	32928	32544	40880	33312	33660	33353
1408	0	21440	32928	32544	40880	33312	33660	33353
1409	0	40768	32928	32544	40880	33312	33660	33353
1410	0	29872	32928	32520	40888	33341	33675	33322
1411	0	19024	32928	32520	40888	33341	33675	33322
1412	0	31408	32932	32568	40888	33320	33676	33354
1413	0	2464	32932	32568	40888	33320	33676	33354
1414	0	25152	32932	32568	40888	33320	33676	33354
1415	0	17952	32940	32496	40800	33340	33646	33335
1416	0	15152	32940	32496	40800	33340	33646	33335
1417	0	36080	32948	32568	40864	33331	33623	33339
1418	0	12256	32948	32568	40864	33331	33623	33339
1419	0	42192	32948	32568	40864	33331	33623	33339
1420	0	30096	32920	32576	40856	33332	33645	33366
1421	0	38736	32920	32576	40856	33332	33645	33366
1422	0	53504	32908	32568	40776	33328	33652	33381
1423	0	33824	32908	32568	40776	33328	33652	33381
1424	0	57872	32908	32568	40776	33328	33652	33381
1425	0	43280	32912	32576	40840	33369	33688	33349
1426	0	41360	32912	32576	40840	33369	33688	33349
1427	0	48672	32928	32580	40912	33343	33658	33310
1428	0	30240	32928	32580	40912	33343	33658	33310
1429	0	42128	32928	32580	40912	33343	33658	33310
1430	0	30144	32956	32576	40888	33338	33650	33325
1431	0	17280	32956	32576	40888	33338	33650	33325
1432	0	30992	32900	32536	40904	33334	33686	33331
1433	0	5088	32900	32536	40904	33334	33686	33331
1434	0	25008	32900	32536	40904	33334	33686	33331
1435	0	8720	32916	32576	40960	33335	33661	33341
1436	0	18992	32916	32576	40960	33335	33661	33341
1437	0	35440	32920	32604	40936	33315	33663	33357
1438	0	14528	32920	32604	40936	33315	33663	33357
1439	0	38336	32920	32604	40936	33315	33663	33357
1440	0	31984	32932	32544	40904	33337	33677	33351
1441	0	38544	32932	32544	40904	33337	33677	33351
1442	0	53840	32856	32520	40856	33336	33650	33394
1443	0	33088	32856	32520	40856	33336	33650	33394
1444	0	64384	32856	32520	40856	33336	33650	33394
1445	0	49920	32924	32544	40784	33328	33623	33380
1446	0	39088	32924	32544	40784	33328	33623	33380
1447	0	50560	32884	32544	40872	33346	33655	33293
1448	0	27440	32884	32544	40872	33346	33655	33293
1449	0	38928	32884	32544	40872	33346	33655	33293
1450	0	30768	32896	32568	40872	33335	33673	33353
1451	0	18336	32896	32568	40872	33335	33673	33353
1452	0	30624	32932	32568	40808	33328	33639	33383
1453	0	11792	32932	32568	40808	33328	33639	33383
1454	0	24640	32932	32568	40808	33328	33639	33383
1455	0	18544	32936	32488	40840	33361	33663	33358
1456	0	14272	32936	32488	40840	33361	33663	33358
1457	0	36848	32920	32528	40888	33325	33665	33412
1458	0	14640	32920	32528	40888	33325	33665	33412
1459	0	36192	32920	32528	40888	33325	33665	33412
1460	0	38576	32904	32560	40912	33340	33687	33361
1461	0	37424	32904	32560	40912	33340	33687	33361
1462	0	55552	32904	32560	40912	33340	33687	33361
1463	0	43856	32920	32560	40904	33346	33661	33329
1464	0	53520	32920	32560	40904	33346	33661	33329
1465	0	51424	32932	32576	40896	33326	33639	33350
1466	0	39600	32932	32576	40896	33326	33639	33350
1467	0	52640	32932	32576	40896	33326	33639	33350
1468	0	31904	32916	32472	40792	33361	33639	33275
1469	0	36256	32916	32472	40792	33361	33639	33275
1470	0	24784	32900	32504	40888	33317	33638	33356
1471	0	19152	32900	32504	40888	33317	33638	33356
1472	0	33584	32900	32504	40888	33317	33638	33356
1473	0	18512	32896	32496	40920	33324	33649	33305
1474	0	20528	32896	32496	40920	33324	33649	33305
1475	0	18832	32916	32536	40744	33341	33628	33319
1476	0	14832	32916	32536	40744	33341	33628	33319
1477	0	36128	32916	32536	40744	33341	33628	33319
1478	0	28384	32932	32480	40784	33326	33681	33372
1479	0	37088	32932	32480	40784	33326	33681	33372
1480	0	30800	32932	32504	40856	33330	33666	33329
1481	0	37280	32932	32504	40856	33330	33666	33329
1482	0	54272	32932	32504	40856	33330	33666	33329
1483	0	44032	32908	32560	40880	33350	33650	33350
1484	0	53248	32908	32560	40880	33350	33650	33350
1485	0	42848	32920	32520	40816	33311	33604	33386
1486	0	41600	32920	32520	40816	33311	33604	33386
1487	0	52016	32920	32520	40816	33311	33604	33386
1488	0	32688	32912	32544	40864	33306	33682	33321
1489	0	31792	32912	32544	40864	33306	33682	33321
1490	0	40800	32904	32520	40720	33329	33671	33375
1491	0	17056	32904	32520	40720	33329	33671	33375
1492	0	32880	32904	32520	40720	33329	33671	33375
1493	0	11952	32904	32480	40872	33333	33629	33307
1494	0	10800	32904	32480	40872	33333	33629	33307
1495	0	25328	32932	32552	40888	33364	33654	33316
1496	0	14992	32932	32552	40888	33364	33654	33316
1497	0	35920	32932	32552	40888	33364	33654	33316
1498	0	25568	32928	32552	40824	33341	33660	33365
1499	0	36208	32928	32552	40824	33341	33660	33365
1500	0	39296	32924	32568	40864	33278	33646	33410
1501	0	37760	32924	32568	40864	33278	33646	33410
1502	0	54384	32924	32568	40864	33278	33646	33410
1503	0	48576	32888	32544	40880	33344	33645	33379
1504	0	52656	32888	32544	40880	33344	33645	33379
1505	0	44016	32912	32616	40864	33332	33646	33332
1506	0	40976	32912	32616	40864	33332	33646	33332
1507	0	51632	32912	32616	40864	33332	33646	33332
1508	0	32880	32892	32568	40840	33358	33670	33310
1509	0	33680	32892	32568	40840	33358	33670	33310
1510	0	31312	32968	32496	40776	33283	33653	33350
1511	0	17712	32968	32496	40776	33283	33653	33350
1512	0	34016	32968	32496	40776	33283	33653	33350
1513	0	14160	32936	32544	40864	33347	33696	33329
1514	0	16976	32936	32544	40864	33347	33696	33329
1515	0	19408	32912	32588	40904	33338	33666	33382
1516	0	5696	32912	32588	40904	33338	33666	33382
1517	0	36992	32912	32588	40904	33338	33666	33382
1518	0	25312	32932	32528	40848	33343	33647	33380
1519	0	31488	32932	32528	40848	33343	33647	33380
1520	0	32336	32912	32580	40816	33311	33669	33353
1521	0	30592	32912	32580	40816	33311	33669	33353
1522	0	56224	32912	32580	40816	33311	33669	33353
1523	0	45616	32924	32588	40856	33326	33664	33357
1524	0	49408	32924	32588	40856	33326	33664	33357
1525	0	51776	32928	32544	40800	33331	33680	33374
1526	0	32176	32928	32544	40800	33331	33680	33374
1527	0	50592	32928	32544	40800	33331	33680	33374
1528	0	38752	32924	32496	40872	33330	33671	33308
1529	0	32320	32924	32496	40872	33330	33671	33308
1530	0	25008	32892	32560	40848	33369	33676	33389
1531	0	9376	32892	32560	40848	33369	33676	33389
1532	0	38864	32892	32560	40848	33369	33676	33389
1533	0	14000	32908	32604	40800	33356	33669	33360
1534	0	13648	32908	32604	40800	33356	33669	33360
1535	0	10672	32952	32604	40840	33368	33636	33279
1536	0	7216	32952	32604	40840	33368	33636	33279
1537	0	36128	32952	32604	40840	33368	33636	33279
1538	0	26704	32924	32592	40824	33342	33684	33370
1539	0	30080	32924	32592	40824	33342	33684	33370
1540	0	39136	32940	32572	40928	33326	33683	33338
1541	0	28416	32940	32572	40928	33326	33683	33338
1542	0	54704	32940	32572	40928	33326	33683	33338
1543	0	49136	32924	32528	40784	33342	33671	33321
1544	0	46336	32924	32528	40784	33342	33671	33321
1545	0	45936	32932	32576	40972	33335	33653	33330
1546	0	40880	32932	32576	40972	33335	33653	33330
1547	0	52640	32932	32576	40972	33335	33653	33330
1548	0	33024	32908	32528	40872	33347	33680	33335
1549	0	30816	32908	32528	40872	33347	33680	33335
1550	0	34704	32904	32552	40848	33371	33659	33326
1551	0	9312	32904	32552	40848	33371	33659	33326
1552	0	31600	32904	32552	40848	33371	33659	33326
1553	0	17808	32880	32528	40800	33349	33653	33369
1554	0	13744	32880	32528	40800	33349	33653	33369
1555	0	19360	32912	32536	40880	33326	33655	33309
1556	0	5600	32912	32536	40880	33326	33655	33309
1557	0	34208	32912	32536	40880	33326	33655	33309
1558	0	29712	32908	32568	40856	33352	33638	33339
1559	0	27888	32908	32568	40856	33352	33638	33339
1560	0	41248	32924	32624	40848	33354	33671	33363
1561	0	28832	32924	32624	40848	33354	33671	33363
1562	0	55408	32924	32624	40848	33354	33671	33363
1563	0	45120	32904	32576	40980	33340	33650	33367
1564	0	43568	32904	32576	40980	33340	33650	33367
1565	0	53632	32920	32564	40832	33332	33643	33326
1566	0	32608	32920	32564	40832	33332	33643	33326
1567	0	54240	32920	32564	40832	33332	33643	33326
1568	0	34336	32916	32568	40864	33339	33644	33372
1569	0	28096	32916	32568	40864	33339	33644	33372
1570	0	33744	32912	32544	40880	33361	33665	33388
1571	0	5008	32912	32544	40880	33361	33665	33388
1572	0	46608	32912	32544	40880	33361	33665	33388
1573	0	12064	32904	32576	40912	33362	33695	33323
1574	0	11104	32904	32576	40912	33362	33695	33323
1575	0	20976	32908	32568	40832	33324	33689	33368
1576	0	0	32908	32568	40832	33324	33689	33368
1577	0	41856	32908	32568	40832	33324	33689	33368
1578	0	24560	32900	32544	40848	33329	33667	33384
1579	0	18688	32900	32544	40848	33329	33667	33384
1580	0	46368	32900	32552	41012	33304	33644	33363
1581	0	27648	32900	32552	41012	33304	33644	33363
1582	0	56768	32900	32552	41012	33304	33644	33363
1583	0	44992	32904	32560	40864	33364	33656	33316
1584	0	43984	32904	32560	40864	33364	33656	33316
1585	0	56336	32912	32536	40776	33334	33642	33385
1586	0	32848	32912	32536	40776	33334	33642	33385
1587	0	54128	32912	32536	40776	33334	33642	33385
1588	0	33424	32932	32552	40896	33349	33662	33349
1589	0	30416	32932	32552	40896	33349	33662	33349
1590	0	35360	32920	32616	40880	33334	33649	33336
1591	0	4032	32920	32616	40880	33334	33649	33336
1592	0	39376	32920	32616	40880	33334	33649	33336
1593	0	14768	32928	32600	40920	33326	33647	33369
1594	0	12160	32928	32600	40920	33326	33647	33369
1595	0	11520	32944	32572	40872	33367	33629	33345
1596	0	7328	32944	32572	40872	33367	33629	33345
1597	0	40736	32944	32572	40872	33367	33629	33345
1598	0	25008	32980	32528	40888	33328	33646	33339
1599	0	23648	32980	32528	40888	33328	33646	33339
1600	0	43792	32920	32600	40872	33331	33661	33354
1601	0	28656	32920	32600	40872	33331	33661	33354
1602	0	54704	32920	32600	40872	33331	33661	33354
1603	0	48512	32932	32552	40888	33348	33662	33372
1604	0	43856	32932	32552	40888	33348	33662	33372
1605	0	47968	32912	32536	40768	33354	33636	33408
1606	0	38224	32912	32536	40768	33354	33636	33408
1607	0	54912	32912	32536	40768	33354	33636	33408
1608	0	33968	32916	32512	40800	33317	33658	33397
1609	0	28784	32916	32512	40800	33317	33658	33397
1610	0	29376	32912	32576	40840	33335	33632	33338
1611	0	16416	32912	32576	40840	33335	33632	33338
1612	0	35584	32912	32576	40840	33335	33632	33338
1613	0	13632	32928	32592	40840	33326	33663	33414
1614	0	10928	32928	32592	40840	33326	33663	33414
1615	0	22848	32920	32592	40800	33309	33649	33386
1616	0	5536	32920	32592	40800	33309	33649	33386
1617	0	35472	32920	32592	40800	33309	33649	33386
1618	0	27024	32884	32588	40912	33320	33655	33373
1619	0	25680	32884	32588	40912	33320	33655	33373
1620	0	42112	32936	32568	40736	33318	33685	33343
1621	0	28848	32936	32568	40736	33318	33685	33343
1622	0	57312	32936	32568	40736	33318	33685	33343
1623	0	44496	32932	32568	40792	33346	33652	33345
1624	0	41632	32932	32568	40792	33346	33652	33345
1625	0	49328	32912	32512	40848	33325	33643	33311
1626	0	34144	32912	32512	40848	33325	33643	33311
1627	0	55136	32912	32512	40848	33325	33643	33311
1628	0	35168	32928	32596	40888	33345	33652	33373
1629	0	21072	32928	32596	40888	33345	33652	33373
1630	0	41584	32928	32536	40904	33339	33658	33338
1631	0	8800	32928	32536	40904	33339	33658	33338
1632	0	34272	32928	32536	40904	33339	33658	33338
1633	0	14112	32904	32552	40848	33321	33657	33345
1634	0	5984	32904	32552	40848	33321	33657	33345
1635	0	26352	32892	32544	40768	33312	33658	33336
1636	0	4944	32892	32544	40768	33312	33658	33336
1637	0	34656	32892	32544	40768	33312	33658	33336
1638	0	24336	32932	32580	40824	33346	33652	33296
1639	0	26864	32932	32580	40824	33346	33652	33296
1640	0	43568	32904	32544	40888	33351	33692	33335
1641	0	28704	32904	32544	40888	33351	33692	33335
1642	0	51952	32904	32544	40888	33351	33692	33335
1643	0	49584	32912	32576	40824	33319	33677	33325
1644	0	43792	32912	32576	40824	33319	33677	33325
1645	0	50128	32912	32612	40912	33346	33668	33294
1646	0	37648	32912	32612	40912	33346	33668	33294
1647	0	58528	32912	32612	40912	33346	33668	33294
1648	0	34144	32924	32592	40888	33365	33670	33341
1649	0	26912	32924	32592	40888	33365	33670	33341
1650	0	30656	32924	32544	40856	33356	33669	33314
1651	0	10224	32924	32544	40856	33356	33669	33314
1652	0	32032	32924	32544	40856	33356	33669	33314
1653	0	12496	32924	32488	40784	33350	33641	33370
1654	0	11232	32924	32488	40784	33350	33641	33370
1655	0	24992	32936	32552	40856	33330	33663	33322
1656	0	5472	32936	32552	40856	33330	33663	33322
1657	0	33088	32936	32552	40856	33330	33663	33322
1658	0	28432	32932	32560	40840	33338	33677	33392
1659	0	28080	32932	32560	40840	33338	33677	33392
1660	0	38832	32912	32576	40824	33299	33673	33359
1661	0	35440	32912	32576	40824	33299	33673	33359
1662	0	52880	32912	32576	40824	33299	33673	33359
1663	0	44784	32944	32604	40784	33338	33665	33377
1664	0	42224	32944	32604	40784	33338	33665	33377
1665	0	57424	32920	32592	40720	33345	33661	33328
1666	0	32096	32920	32592	40720	33345	33661	33328
1667	0	52960	32920	32592	40720	33345	33661	33328
1668	0	35424	32924	32604	40956	33340	33653	33408
1669	0	27200	32924	32604	40956	33340	33653	33408
1670	0	34672	32932	32580	40880	33333	33655	33369
1671	0	10128	32932	32580	40880	33333	33655	33369
1672	0	33088	32932	32580	40880	33333	33655	33369
1673	0	14016	32924	32552	40832	33340	33635	33342
1674	0	10016	32924	32552	40832	33340	33635	33342
1675	0	23952	32952	32580	40904	33352	33630	33273
1676	0	5072	32952	32580	40904	33352	33630	33273
1677	0	31296	32952	32580	40904	33352	33630	33273
1678	0	30560	32944	32552	40752	33340	33664	33366
1679	0	26112	32944	32552	40752	33340	33664	33366
1680	0	38944	32892	32620	40784	33331	33659	33323
1681	0	34320	32892	32620	40784	33331	33659	33323
1682	0	51152	32892	32620	40784	33331	33659	33323
1683	0	45504	32904	32572	40864	33330	33658	33391
1684	0	42848	32904	32572	40864	33330	33658	33391
1685	0	53088	32900	32600	40760	33330	33662	33382
1686	0	33568	32900	32600	40760	33330	33662	33382
1687	0	51984	32900	32600	40760	33330	33662	33382
1688	0	32144	32924	32536	40880	33334	33658	33384
1689	0	30944	32924	32536	40880	33334	33658	33384
1690	0	38816	32904	32568	40760	33344	33662	33364
1691	0	9040	32904	32568	40760	33344	33662	33364
1692	0	28720	32904	32568	40760	33344	33662	33364
1693	0	20144	32944	32604	40880	33335	33671	33377
1694	0	10480	32944	32604	40880	33335	33671	33377
1695	0	19488	32932	32536	40880	33328	33677	33340
1696	0	11904	32932	32536	40880	33328	33677	33340
1697	0	31600	32932	32536	40880	33328	33677	33340
1698	0	26496	32944	32544	40880	33365	33676	33328
1699	0	24416	32944	32544	40880	33365	33676	33328
1700	0	39712	32912	32560	40880	33355	33653	33350
1701	0	29856	32912	32560	40880	33355	33653	33350
1702	0	50912	32912	32560	40880	33355	33653	33350
1703	0	44080	32936	32596	40904	33330	33639	33391
1704	0	41248	32936	32596	40904	33330	33639	33391
1705	0	59648	32924	32512	40848	33359	33654	33332
1706	0	32064	32924	32512	40848	33359	33654	33332
1707	0	50864	32924	32512	40848	33359	33654	33332
1708	0	35616	32888	32504	40768	33373	33682	33350
1709	0	28016	32888	32504	40768	33373	33682	33350
1710	0	40016	32932	32544	40872	33318	33615	33376
1711	0	0	32932	32544	40872	33318	33615	33376
1712	0	34624	32932	32544	40872	33318	33615	33376
1713	0	16848	32932	32512	40792	33333	33648	33305
1714	0	5840	32932	32512	40792	33333	33648	33305
1715	0	32720	32936	32504	40880	33342	33655	33379
1716	0	6640	32936	32504	40880	33342	33655	33379
1717	0	28768	32936	32504	40880	33342	33655	33379
1718	0	28032	32952	32496	40936	33357	33699	33328
1719	0	27648	32952	32496	40936	33357	33699	33328
1720	0	48144	32912	32536	40896	33328	33643	33387
1721	0	20144	32912	32536	40896	33328	33643	33387
1722	0	57648	32912	32536	40896	33328	33643	33387
1723	0	47248	32872	32604	40848	33349	33666	33325
1724	0	40640	32872	32604	40848	33349	33666	33325
1725	0	60144	32888	32544	40832	33347	33671	33302
1726	0	23152	32888	32544	40832	33347	33671	33302
1727	0	54368	32888	32544	40832	33347	33671	33302
1728	0	36512	32932	32596	40824	33328	33659	33368
1729	0	22736	32932	32596	40824	33328	33659	33368
1730	0	48704	32928	32536	40944	33362	33705	33308
1731	0	8944	32928	32536	40944	33362	33705	33308
1732	0	27344	32928	32536	40944	33362	33705	33308
1733	0	17440	32972	32496	40856	33335	33696	33311
1734	0	14400	32972	32496	40856	33335	33696	33311
1735	0	30096	32972	32520	40880	33320	33662	33339
1736	0	0	32972	32520	40880	33320	33662	33339
1737	0	35392	32972	32520	40880	33320	33662	33339
1738	0	27984	32940	32544	40880	33331	33657	33359
1739	0	24288	32940	32544	40880	33331	33657	33359
1740	0	46336	32928	32528	40840	33363	33672	33384
1741	0	21024	32928	32528	40840	33363	33672	33384
1742	0	53696	32928	32528	40840	33363	33672	33384
1743	0	46416	32924	32552	40752	33350	33665	33367
1744	0	38176	32924	32552	40752	33350	33665	33367
1745	0	65520	32972	32592	40864	33338	33635	33384
1746	0	29952	32972	32592	40864	33338	33635	33384
1747	0	47888	32972	32592	40864	33338	33635	33384
1748	0	36240	32936	32576	40872	33317	33680	33366
1749	0	28848	32936	32576	40872	33317	33680	33366
1750	0	42448	32924	32544	40904	33330	33671	33340
1751	0	9808	32924	32544	40904	33330	33671	33340
1752	0	25376	32924	32544	40904	33330	33671	33340
1753	0	18880	32932	32544	40768	33349	33686	33355
1754	0	8800	32932	32544	40768	33349	33686	33355
1755	0	27200	32872	32528	40872	33326	33666	33401
1756	0	5648	32872	32528	40872	33326	33666	33401
1757	0	24672	32872	32528	40872	33326	33666	33401
1758	0	29152	32940	32592	40776	33310	33691	33361
1759	0	22576	32940	32592	40776	33310	33691	33361
1760	0	49712	32912	32604	40896	33339	33647	33388
1761	0	20576	32912	32604	40896	33339	33647	33388
1762	0	54912	32912	32604	40896	33339	33647	33388
1763	0	46544	32912	32592	40848	33341	33688	33347
1764	0	39760	32912	32592	40848	33341	33688	33347
1765	0	62800	32924	32584	40896	33328	33653	33334
1766	0	22256	32924	32584	40896	33328	33653	33334
1767	0	49264	32924	32584	40896	33328	33653	33334
1768	0	38608	32912	32552	40888	33368	33651	33337
1769	0	23072	32912	32552	40888	33368	33651	33337
1770	0	48928	32912	32552	40888	33368	33651	33337
1771	0	23760	32916	32552	40824	33303	33659	33387
1772	0	23456	32916	32552	40824	33303	33659	33387
1773	0	19968	32912	32600	40972	33325	33644	33364
1774	0	12480	32912	32600	40972	33325	33644	33364
1775	0	30352	32912	32600	40972	33325	33644	33364
1776	0	18352	32960	32560	40776	33299	33671	33365
1777	0	27984	32960	32560	40776	33299	33671	33365
1778	0	29792	32880	32552	40736	33300	33638	33370
1779	0	23264	32880	32552	40736	33300	33638	33370
1780	0	48832	32880	32552	40736	33300	33638	33370
1781	0	38816	32912	32512	40704	33326	33662	33369
1782	0	48864	32912	32512	40704	33326	33662	33369
1783	0	47440	32912	32536	40848	33343	33691	33357
1784	0	38112	32912	32536	40848	33343	33691	33357
1785	0	63584	32912	32536	40848	33343	33691	33357
1786	0	50320	32864	32592	40912	33335	33653	33412
1787	0	42720	32864	32592	40912	33335	33653	33412
1788	0	36144	32904	32520	40848	33357	33687	33401
1789	0	29056	32904	32520	40848	33357	33687	33401
1790	0	45104	32904	32520	40848	33357	33687	33401
1791	0	24512	32908	32536	40792	33362	33653	33349
1792	0	29376	32908	32536	40792	33362	33653	33349
1793	0	19760	32892	32536	40880	33312	33649	33389
1794	0	8672	32892	32536	40880	33312	33649	33389
1795	0	28816	32892	32536	40880	33312	33649	33389
1796	0	15520	32896	32560	40872	33333	33688	33357
1797	0	27008	32896	32560	40872	33333	33688	33357
1798	0	31088	32932	32596	40848	33345	33665	33353
1799	0	22576	32932	32596	40848	33345	33665	33353
1800	0	54880	32932	32596	40848	33345	33665	33353
1801	0	38576	32916	32504	40856	33303	33653	33346
1802	0	42064	32916	32504	40856	33303	33653	33346
1803	0	46608	32924	32520	40792	33339	33661	33382
1804	0	39888	32924	32520	40792	33339	33661	33382
1805	0	62448	32924	32520	40792	33339	33661	33382
1806	0	46960	32912	32536	40896	33339	33684	33381
1807	0	42960	32912	32536	40896	33339	33684	33381
1808	0	38624	32912	32560	40936	33343	33684	33363
1809	0	22480	32912	32560	40936	33343	33684	33363
1810	0	45104	32912	32560	40936	33343	33684	33363
1811	0	24784	32964	32528	40832	33329	33652	33367
1812	0	20160	32964	32528	40832	33329	33652	33367
1813	0	20272	32924	32584	40832	33344	33668	33342
1814	0	7456	32924	32584	40832	33344	33668	33342
1815	0	30912	32924	32584	40832	33344	33668	33342
1816	0	16832	32912	32620	40856	33335	33642	33381
1817	0	19856	32912	32620	40856	33335	33642	33381
1818	0	30256	32892	32584	40848	33353	33666	33381
1819	0	22032	32892	32584	40848	33353	33666	33381
1820	0	50368	32892	32584	40848	33353	33666	33381
1821	0	37776	32908	32596	40784	33324	33654	33314
1822	0	37856	32908	32596	40784	33324	33654	33314
1823	0	49104	32924	32528	40760	33328	33690	33327
1824	0	27616	32924	32528	40760	33328	33690	33327
1825	0	65520	32924	32528	40760	33328	33690	33327
1826	0	47008	32920	32576	40880	33322	33680	33337
1827	0	39584	32920	32576	40880	33322	33680	33337
1828	0	39360	32928	32536	40888	33317	33644	33362
1829	0	20832	32928	32536	40888	33317	33644	33362
1830	0	44992	32928	32536	40888	33317	33644	33362
1831	0	24736	32892	32528	40944	33357	33634	33358
1832	0	17136	32892	32528	40944	33357	33634	33358
1833	0	22112	32896	32536	40840	33331	33660	33368
1834	0	1184	32896	32536	40840	33331	33660	33368
1835	0	31456	32896	32536	40840	33331	33660	33368
1836	0	18144	32896	32568	40896	33334	33646	33391
1837	0	16016	32896	32568	40896	33334	33646	33391
1838	0	31104	32924	32536	40768	33360	33662	33356
1839	0	16256	32924	32536	40768	33360	33662	33356
1840	0	49248	32924	32536	40768	33360	33662	33356
1841	0	38832	32912	32568	40864	33356	33654	33370
1842	0	36416	32912	32568	40864	33356	33654	33370
1843	0	47664	32960	32536	40864	33340	33686	33358
1844	0	26240	32960	32536	40864	33340	33686	33358
1845	0	65520	32960	32536	40864	33340	33686	33358
1846	0	46704	32932	32552	40824	33298	33649	33340
1847	0	36032	32932	32552	40824	33298	33649	33340
1848	0	41072	32896	32536	40880	33304	33658	33358
1849	0	15712	32896	32536	40880	33304	33658	33358
1850	0	47408	32896	32536	40880	33304	33658	33358
1851	0	24176	32860	32520	40888	33338	33671	33386
1852	0	17456	32860	32520	40888	33338	33671	33386
1853	0	23904	32932	32520	40784	33340	33648	33380
1854	0	1184	32932	32520	40784	33340	33648	33380
1855	0	30736	32932	32520	40784	33340	33648	33380
1856	0	14832	32924	32576	40864	33329	33668	33377
1857	0	17568	32924	32576	40864	33329	33668	33377
1858	0	32288	32932	32552	40888	33340	33650	33349
1859	0	6496	32932	32552	40888	33340	33650	33349
1860	0	48736	32932	32552	40888	33340	33650	33349
1861	0	45792	32892	32536	40872	33354	33654	33303
1862	0	33408	32892	32536	40872	33354	33654	33303
1863	0	48160	32928	32520	40896	33316	33671	33361
1864	0	25264	32928	32520	40896	33316	33671	33361
1865	0	64240	32928	32520	40896	33316	33671	33361
1866	0	52032	32956	32536	40832	33321	33649	33358
1867	0	33424	32956	32536	40832	33321	33649	33358
1868	0	39936	32896	32572	40840	33363	33658	33300
1869	0	11824	32896	32572	40840	33363	33658	33300
1870	0	44240	32896	32572	40840	33363	33658	33300
1871	0	28496	32932	32512	40760	33341	33650	33374
1872	0	12736	32932	32512	40760	33341	33650	33374
1873	0	23072	32912	32520	40856	33330	33670	33339
1874	0	0	32912	32520	40856	33330	33670	33339
1875	0	34864	32912	32520	40856	33330	33670	33339
1876	0	15232	32908	32600	40864	33352	33633	33349
1877	0	11520	32908	32600	40864	33352	33633	33349
1878	0	24912	32912	32536	40880	33345	33638	33316
1879	0	18688	32912	32536	40880	33345	33638	33316
1880	0	50192	32912	32536	40880	33345	33638	33316
1881	0	37600	32912	32544	40824	33358	33652	33399
1882	0	33888	32912	32544	40824	33358	33652	33399
1883	0	48960	32924	32560	40736	33356	33658	33316
1884	0	34496	32924	32560	40736	33356	33658	33316
1885	0	63264	32924	32560	40736	33356	33658	33316
1886	0	49008	32928	32504	40872	33349	33662	33366
1887	0	34976	32928	32504	40872	33349	33662	33366
1888	0	43232	32924	32512	40752	33337	33655	33365
1889	0	20800	32924	32512	40752	33337	33655	33365
1890	0	45600	32924	32512	40752	33337	33655	33365
1891	0	24976	32908	32528	40848	33350	33642	33326
1892	0	11952	32908	32528	40848	33350	33642	33326
1893	0	25088	32904	32544	40888	33337	33675	33341
1894	0	0	32904	32544	40888	33337	33675	33341
1895	0	34848	32904	32544	40888	33337	33675	33341
1896	0	16272	32924	32512	40912	33326	33673	33365
1897	0	18448	32924	32512	40912	33326	33673	33365
1898	0	33824	32932	32568	40864	33328	33674	33330
1899	0	17296	32932	32568	40864	33328	33674	33330
1900	0	50480	32932	32568	40864	33328	33674	33330
1901	0	35968	32924	32580	40880	33331	33663	33371
1902	0	39040	32924	32580	40880	33331	33663	33371
1903	0	51520	32876	32520	40840	33325	33645	33318
1904	0	33568	32876	32520	40840	33325	33645	33318
1905	0	63376	32876	32520	40840	33325	33645	33318
1906	0	49456	32940	32544	40880	33315	33667	33367
1907	0	35440	32940	32544	40880	33315	33667	33367
1908	0	42176	32900	32552	40864	33329	33661	33350
1909	0	13296	32900	32552	40864	33329	33661	33350
1910	0	53712	32900	32552	40864	33329	33661	33350
1911	0	25552	32908	32568	40920	33321	33663	33324
1912	0	12416	32908	32568	40920	33321	33663	33324
1913	0	24688	32892	32544	40856	33343	33659	33325
1914	0	2928	32892	32544	40856	33343	33659	33325
1915	0	31504	32892	32544	40856	33343	33659	33325
1916	0	11616	32932	32580	40856	33363	33647	33359
1917	0	13440	32932	32580	40856	33363	33647	33359
1918	0	44736	32940	32512	40840	33323	33642	33352
1919	0	15008	32940	32512	40840	33323	33642	33352
1920	0	47904	32940	32512	40840	33323	33642	33352
1921	0	42160	32904	32528	40848	33309	33686	33401
1922	0	33392	32904	32528	40848	33309	33686	33401
1923	0	47856	32880	32536	40880	33341	33680	33376
1924	0	28656	32880	32536	40880	33341	33680	33376
1925	0	65520	32880	32536	40880	33341	33680	33376
1926	0	47504	32904	32568	40888	33347	33652	33347
1927	0	33280	32904	32568	40888	33347	33652	33347
1928	0	42528	32928	32512	40956	33357	33656	33335
1929	0	22608	32928	32512	40956	33357	33656	33335
1930	0	45440	32928	32512	40956	33357	33656	33335
1931	0	25184	32912	32520	40888	33339	33647	33341
1932	0	19200	32912	32520	40888	33339	33647	33341
1933	0	27296	32920	32576	40960	33324	33637	33325
1934	0	1296	32920	32576	40960	33324	33637	33325
1935	0	31760	32920	32576	40960	33324	33637	33325
1936	0	16368	32932	32560	40904	33333	33649	33355
1937	0	13904	32932	32560	40904	33333	33649	33355
1938	0	33984	32948	32520	40816	33328	33650	33383
1939	0	15216	32948	32520	40816	33328	33650	33383
1940	0	49936	32948	32520	40816	33328	33650	33383
1941	0	36640	32940	32552	40896	33322	33687	33353
1942	0	34144	32940	32552	40896	33322	33687	33353
1943	0	51680	32900	32528	40888	33323	33673	33319
1944	0	34528	32900	32528	40888	33323	33673	33319
1945	0	65136	32900	32528	40888	33323	33673	33319
1946	0	46496	32912	32604	40800	33336	33622	33395
1947	0	33952	32912	32604	40800	33336	33622	33395
1948	0	42864	32892	32600	40936	33333	33647	33334
1949	0	22992	32892	32600	40936	33333	33647	33334
1950	0	46032	32892	32600	40936	33333	33647	33334
1951	0	23008	32920	32596	40896	33342	33646	33373
1952	0	18784	32920	32596	40896	33342	33646	33373
1953	0	29632	32892	32552	40928	33313	33688	33366
1954	0	0	32892	32552	40928	33313	33688	33366
1955	0	28928	32892	32552	40928	33313	33688	33366
1956	0	19216	32904	32512	40864	33346	33675	33376
1957	0	13904	32904	32512	40864	33346	33675	33376
1958	0	33200	32912	32512	40848	33325	33678	33334
1959	0	8176	32912	32512	40848	33325	33678	33334
1960	0	57488	32912	32512	40848	33325	33678	33334
1961	0	36256	32892	32528	40904	33324	33674	33300
1962	0	34960	32892	32528	40904	33324	33674	33300
1963	0	50640	32880	32568	40880	33302	33663	33344
1964	0	34864	32880	32568	40880	33302	33663	33344
1965	0	63616	32880	32568	40880	33302	33663	33344
1966	0	46752	32924	32528	40840	33334	33671	33375
1967	0	36336	32924	32528	40840	33334	33671	33375
1968	0	54416	32932	32616	40848	33329	33675	33353
1969	0	20864	32932	32616	40848	33329	33675	33353
1970	0	44384	32932	32616	40848	33329	33675	33353
1971	0	30704	32904	32568	40936	33315	33658	33314
1972	0	14672	32904	32568	40936	33315	33658	33314
1973	0	29584	32932	32536	40864	33321	33670	33345
1974	0	0	32932	32536	40864	33321	33670	33345
1975	0	38576	32932	32536	40864	33321	33670	33345
1976	0	15664	32912	32552	40880	33340	33664	33372
1977	0	12592	32912	32552	40880	33340	33664	33372
1978	0	33440	32912	32604	40920	33331	33672	33388
1979	0	16080	32912	32604	40920	33331	33672	33388
1980	0	48016	32912	32604	40920	33331	33672	33388
1981	0	37104	32860	32568	40920	33319	33681	33339
1982	0	39936	32860	32568	40920	33319	33681	33339
1983	0	55968	32900	32572	40864	33339	33677	33379
1984	0	34736	32900	32572	40864	33339	33677	33379
1985	0	61632	32900	32572	40864	33339	33677	33379
1986	0	49344	32916	32568	40848	33348	33666	33340
1987	0	36448	32916	32568	40848	33348	33666	33340
1988	0	46944	32936	32576	40816	33337	33664	33371
1989	0	21200	32936	32576	40816	33337	33664	33371
1990	0	43312	32936	32576	40816	33337	33664	33371
1991	0	25616	32920	32528	40880	33335	33684	33368
1992	0	14080	32920	32528	40880	33335	33684	33368
1993	0	29440	32884	32536	40776	33335	33682	33369
1994	0	2096	32884	32536	40776	33335	33682	33369
1995	0	29456	32884	32536	40776	33335	33682	33369
1996	0	16096	32912	32576	40784	33316	33649	33389
1997	0	14592	32912	32576	40784	33316	33649	33389
1998	0	36064	32924	32596	40888	33348	33681	33383
1999	0	15248	32924	32596	40888	33348	33681	33383
2000	0	47328	32924	32596	40888	33348	33681	33383
2001	0	36032	32936	32572	40768	33321	33656	33363
2002	0	43040	32936	32572	40768	33321	33656	33363
2003	0	56656	32940	32580	40808	33276	33657	33342
2004	0	33504	32940	32580	40808	33276	33657	33342
2005	0	60096	32940	32580	40808	33276	33657	33342
2006	0	51296	32892	32528	40848	33347	33676	33274
2007	0	35936	32892	32528	40848	33347	33676	33274
2008	0	48352	32912	32576	40864	33334	33682	33330
2009	0	14256	32912	32576	40864	33334	33682	33330
2010	0	50480	32912	32576	40864	33334	33682	33330
2011	0	24000	32924	32536	40824	33332	33686	33366
2012	0	14160	32924	32536	40824	33332	33686	33366
2013	0	28256	32912	32564	40888	33343	33672	33365
2014	0	1472	32912	32564	40888	33343	33672	33365
2015	0	27184	32912	32564	40888	33343	33672	33365
2016	0	14352	32956	32552	40856	33300	33662	33379
2017	0	22960	32956	32552	40856	33300	33662	33379
2018	0	37936	32932	32596	40912	33345	33665	33376
2019	0	15472	32932	32596	40912	33345	33665	33376
2020	0	43968	32932	32596	40912	33345	33665	33376
2021	0	40608	32876	32528	40936	33337	33653	33398
2022	0	36016	32876	32528	40936	33337	33653	33398
2023	0	54416	32884	32544	40728	33344	33654	33383
2024	0	27328	32884	32544	40728	33344	33654	33383
2025	0	63552	32884	32544	40728	33344	33654	33383
2026	0	49376	32892	32600	40888	33334	33647	33351
2027	0	34672	32892	32600	40888	33334	33647	33351
2028	0	39744	32928	32624	40888	33324	33638	33308
2029	0	21712	32928	32624	40888	33324	33638	33308
2030	0	41664	32928	32624	40888	33324	33638	33308
2031	0	25600	32988	32612	40776	33326	33657	33403
2032	0	11264	32988	32612	40776	33326	33657	33403
2033	0	24464	32944	32592	40904	33317	33650	33358
2034	0	2432	32944	32592	40904	33317	33650	33358
2035	0	25120	32944	32592	40904	33317	33650	33358
2036	0	15136	32932	32504	40856	33330	33665	33326
2037	0	20176	32932	32504	40856	33330	33665	33326
2038	0	38528	32924	32568	40848	33341	33656	33327
2039	0	14976	32924	32568	40848	33341	33656	33327
2040	0	42064	32924	32568	40848	33341	33656	33327
2041	0	37376	32896	32520	40904	33321	33662	33330
2042	0	36624	32896	32520	40904	33321	33662	33330
2043	0	55136	32904	32528	40808	33342	33652	33362
2044	0	34400	32904	32528	40808	33342	33652	33362
2045	0	57456	32904	32528	40808	33342	33652	33362
2046	0	48464	32904	32568	40824	33326	33665	33364
2047	0	35824	32904	32568	40824	33326	33665	33364
2048	0	51056	32920	32584	40888	33346	33649	33319
2049	0	19696	32920	32584	40888	33346	33649	33319
2050	0	42848	32920	32584	40888	33346	33649	33319
2051	0	24576	32896	32564	40936	33356	33643	33353
2052	0	23056	32896	32564	40936	33356	33643	33353
2053	0	34736	32932	32544	40856	33359	33653	33291
2054	0	0	32932	32544	40856	33359	33653	33291
2055	0	24944	32932	32544	40856	33359	33653	33291
2056	0	18624	32920	32544	40944	33335	33643	33321
2057	0	15856	32920	32544	40944	33335	33643	33321
2058	0	37872	32920	32592	40936	33324	33660	33337
2059	0	7904	32920	32592	40936	33324	33660	33337
2060	0	51328	32920	32592	40936	33324	33660	33337
2061	0	37120	32896	32592	40928	33328	33651	33293
2062	0	37024	32896	32592	40928	33328	33651	33293
2063	0	54752	32892	32552	40776	33338	33663	33326
2064	0	35728	32892	32552	40776	33338	33663	33326
2065	0	57296	32892	32552	40776	33338	33663	33326
2066	0	44352	32932	32568	40904	33335	33678	33354
2067	0	44112	32932	32568	40904	33335	33678	33354
2068	0	52560	32900	32544	40792	33349	33642	33344
2069	0	18992	32900	32544	40792	33349	33642	33344
2070	0	39328	32900	32544	40792	33349	33642	33344
2071	0	29408	32912	32488	40904	33339	33648	33317
2072	0	15136	32912	32488	40904	33339	33648	33317
2073	0	32464	32932	32576	40792	33338	33659	33344
2074	0	0	32932	32576	40792	33338	33659	33344
2075	0	25776	32932	32576	40792	33338	33659	33344
2076	0	16864	32892	32560	40880	33318	33676	33352
2077	0	15024	32892	32560	40880	33318	33676	33352
2078	0	28144	32896	32560	40840	33326	33661	33373
2079	0	16224	32896	32560	40840	33326	33661	33373
2080	0	40272	32896	32560	40840	33326	33661	33373
2081	0	37888	32904	32544	40824	33334	33670	33340
2082	0	36496	32904	32544	40824	33334	33670	33340
2083	0	46992	32960	32568	40776	33322	33669	33303
2084	0	34464	32960	32568	40776	33322	33669	33303
2085	0	56000	32960	32568	40776	33322	33669	33303
2086	0	47040	32960	32536	40736	33337	33635	33339
2087	0	40496	32960	32536	40736	33337	33635	33339
2088	0	53024	32960	32520	40864	33317	33665	33345
2089	0	19584	32960	32520	40864	33317	33665	33345
2090	0	38304	32960	32520	40864	33317	33665	33345
2091	0	25632	32920	32496	40856	33373	33654	33330
2092	0	15264	32920	32496	40856	33373	33654	33330
2093	0	32048	32892	32592	40792	33342	33662	33319
2094	0	656	32892	32592	40792	33342	33662	33319
2095	0	22496	32892	32592	40792	33342	33662	33319
2096	0	17168	32920	32528	40816	33338	33664	33343
2097	0	16592	32920	32528	40816	33338	33664	33343
2098	0	38960	32912	32576	40856	33337	33668	33318
2099	0	10656	32912	32576	40856	33337	33668	33318
2100	0	38576	32912	32576	40856	33337	33668	33318
2101	0	39248	32920	32592	40872	33323	33661	33372
2102	0	33888	32920	32592	40872	33323	33661	33372
2103	0	49248	32884	32512	40920	33338	33683	33323
2104	0	35024	32884	32512	40920	33338	33683	33323
2105	0	53408	32884	32512	40920	33338	33683	33323
2106	0	46784	32932	32544	40880	33323	33631	33365
2107	0	39408	32932	32544	40880	33323	33631	33365
2108	0	52688	32932	32544	40880	33323	33631	33365
2109	0	37184	32944	32480	40888	33362	33644	33352
2110	0	36256	32944	32480	40888	33362	33644	33352
2111	0	33408	32924	32528	40904	33323	33657	33356
2112	0	14496	32924	32528	40904	33323	33657	33356
2113	0	34240	32924	32528	40904	33323	33657	33356
2114	0	9696	32932	32520	40888	33340	33646	33362
2115	0	23568	32932	32520	40888	33340	33646	33362
2116	0	16256	32920	32528	40864	33335	33670	33406
2117	0	16672	32920	32528	40864	33335	33670	33406
2118	0	30288	32920	32528	40864	33335	33670	33406
2119	0	36752	32952	32600	40800	33324	33647	33361
2120	0	37024	32952	32600	40800	33324	33647	33361
2121	0	37888	32904	32552	40904	33314	33651	33366
2122	0	40656	32904	32552	40904	33314	33651	33366
2123	0	57600	32904	32552	40904	33314	33651	33366
2124	0	49584	32912	32536	40888	33295	33686	33296
2125	0	52816	32912	32536	40888	33295	33686	33296
2126	0	49920	32900	32560	40944	33317	33668	33397
2127	0	37520	32900	32560	40944	33317	33668	33397
2128	0	50320	32900	32560	40944	33317	33668	33397
2129	0	36240	32912	32560	40840	33336	33674	33345
2130	0	36784	32912	32560	40840	33336	33674	33345
2131	0	34928	32948	32536	40824	33322	33651	33335
2132	0	14560	32948	32536	40824	33322	33651	33335
2133	0	33072	32948	32536	40824	33322	33651	33335
2134	0	15968	32928	32520	40864	33336	33670	33338
2135	0	20944	32928	32520	40864	33336	33670	33338
2136	0	23328	32908	32580	40912	33328	33652	33338
2137	0	15520	32908	32580	40912	33328	33652	33338
2138	0	39040	32908	32580	40912	33328	33652	33338
2139	0	31168	32932	32552	40896	33332	33668	33302
2140	0	37088	32932	32552	40896	33332	33668	33302
2141	0	37792	32960	32552	40880	33314	33671	33365
2142	0	38032	32960	32552	40880	33314	33671	33365
2143	0	57728	32960	32552	40880	33314	33671	33365
2144	0	49568	32936	32552	40800	33343	33646	33362
2145	0	55040	32936	32552	40800	33343	33646	33362
2146	0	48064	32896	32528	40880	33330	33644	33343
2147	0	37616	32896	32528	40880	33330	33644	33343
2148	0	52352	32896	32528	40880	33330	33644	33343
2149	0	36944	32936	32552	40736	33348	33662	33367
2150	0	35184	32936	32552	40736	33348	33662	33367
2151	0	26944	32900	32596	40888	33329	33670	33352
2152	0	15648	32900	32596	40888	33329	33670	33352
2153	0	30704	32900	32596	40888	33329	33670	33352
2154	0	17776	32920	32552	40824	33329	33668	33304
2155	0	19216	32920	32552	40824	33329	33668	33304
2156	0	15056	32960	32560	40880	33327	33646	33353
2157	0	27008	32960	32560	40880	33327	33646	33353
2158	0	41504	32960	32560	40880	33327	33646	33353
2159	0	31008	32912	32488	40864	33318	33646	33371
2160	0	34752	32912	32488	40864	33318	33646	33371
2161	0	42064	32912	32552	40880	33358	33632	33369
2162	0	36544	32912	32552	40880	33358	33632	33369
2163	0	58048	32912	32552	40880	33358	33632	33369
2164	0	44416	32920	32504	40800	33322	33663	33373
2165	0	50800	32920	32504	40800	33322	33663	33373
2166	0	54992	32912	32584	40808	33341	33674	33367
2167	0	35216	32912	32584	40808	33341	33674	33367
2168	0	42176	32912	32584	40808	33341	33674	33367
2169	0	41952	32920	32592	40888	33330	33642	33331
2170	0	35056	32920	32592	40888	33330	33642	33331
2171	0	25648	32884	32568	40840	33339	33662	33365
2172	0	16384	32884	32568	40840	33339	33662	33365
2173	0	25392	32884	32568	40840	33339	33662	33365
2174	0	23920	32928	32568	40816	33345	33688	33371
2175	0	15616	32928	32568	40816	33345	33688	33371
2176	0	16464	32888	32520	40896	33338	33665	33394
2177	0	17184	32888	32520	40896	33338	33665	33394
2178	0	35632	32888	32520	40896	33338	33665	33394
2179	0	30240	32888	32536	40832	33307	33667	33363
2180	0	33472	32888	32536	40832	33307	33667	33363
2181	0	37712	32932	32580	40800	33343	33679	33322
2182	0	22144	32932	32580	40800	33343	33679	33322
2183	0	60816	32932	32580	40800	33343	33679	33322
2184	0	50160	32968	32552	40872	33362	33662	33354
2185	0	49264	32968	32552	40872	33362	33662	33354
2186	0	53120	32924	32512	40896	33325	33644	33386
2187	0	28112	32924	32512	40896	33325	33644	33386
2188	0	52592	32924	32512	40896	33325	33644	33386
2189	0	33280	32904	32596	40840	33332	33663	33310
2190	0	40640	32904	32596	40840	33332	33663	33310
2191	0	27024	32920	32576	40768	33321	33657	33324
2192	0	5408	32920	32576	40768	33321	33657	33324
2193	0	34160	32920	32576	40768	33321	33657	33324
2194	0	17920	32960	32520	40856	33310	33651	33397
2195	0	15488	32960	32520	40856	33310	33651	33397
2196	0	16864	32924	32544	40816	33335	33673	33376
2197	0	2816	32924	32544	40816	33335	33673	33376
2198	0	40432	32924	32544	40816	33335	33673	33376
2199	0	29984	32912	32568	40856	33325	33652	33335
2200	0	31488	32912	32568	40856	33325	33652	33335
2201	0	40032	32876	32528	40964	33306	33677	33314
2202	0	25104	32876	32528	40964	33306	33677	33314
2203	0	60336	32876	32528	40964	33306	33677	33314
2204	0	48256	32932	32584	40784	33325	33667	33365
2205	0	46656	32932	32584	40784	33325	33667	33365
2206	0	53616	32920	32528	40888	33323	33653	33333
2207	0	27728	32920	32528	40888	33323	33653	33333
2208	0	54288	32920	32528	40888	33323	33653	33333
2209	0	29936	32912	32552	40888	33327	33653	33332
2210	0	38448	32912	32552	40888	33327	33653	33332
2211	0	27520	32908	32536	40816	33360	33665	33306
2212	0	3840	32908	32536	40816	33360	33665	33306
2213	0	28736	32908	32536	40816	33360	33665	33306
2214	0	19616	32932	32580	40920	33343	33658	33367
2215	0	13104	32932	32580	40920	33343	33658	33367
2216	0	16160	32912	32576	40832	33340	33661	33323
2217	0	0	32912	32576	40832	33340	33661	33323
2218	0	42384	32912	32576	40832	33340	33661	33323
2219	0	30960	32900	32560	40896	33323	33658	33385
2220	0	27152	32900	32560	40896	33323	33658	33385
2221	0	37008	32924	32536	40912	33342	33673	33369
2222	0	28096	32924	32536	40912	33342	33673	33369
2223	0	60896	32924	32536	40912	33342	33673	33369
2224	0	43872	32892	32512	40848	33352	33639	33350
2225	0	43760	32892	32512	40848	33352	33639	33350
2226	0	52208	32912	32604	40948	33316	33633	33362
2227	0	27168	32912	32604	40948	33316	33633	33362
2228	0	54032	32912	32604	40948	33316	33633	33362
2229	0	30576	32912	32472	40960	33307	33641	33378
2230	0	34240	32912	32472	40960	33307	33641	33378
2231	0	25776	32912	32604	40936	33319	33664	33358
2232	0	5504	32912	32604	40936	33319	33664	33358
2233	0	35152	32912	32604	40936	33319	33664	33358
2234	0	12272	32920	32520	40872	33329	33637	33301
2235	0	20016	32920	32520	40872	33329	33637	33301
2236	0	16176	32952	32544	40768	33332	33653	33305
2237	0	2256	32952	32544	40768	33332	33653	33305
2238	0	39424	32952	32544	40768	33332	33653	33305
2239	0	26160	32924	32596	40832	33340	33598	33373
2240	0	28640	32924	32596	40832	33340	33598	33373
2241	0	40064	32940	32576	40832	33353	33651	33343
2242	0	23424	32940	32576	40832	33353	33651	33343
2243	0	59584	32940	32576	40832	33353	33651	33343
2244	0	48784	32968	32544	40888	33352	33667	33368
2245	0	43840	32968	32544	40888	33352	33667	33368
2246	0	49472	32908	32584	40896	33305	33664	33358
2247	0	26032	32908	32584	40896	33305	33664	33358
2248	0	55568	32908	32584	40896	33305	33664	33358
2249	0	37584	32892	32536	40896	33319	33598	33373
2250	0	27840	32892	32536	40896	33319	33598	33373
2251	0	26640	32892	32592	40840	33328	33628	33387
2252	0	7104	32892	32592	40840	33328	33628	33387
2253	0	27552	32892	32592	40840	33328	33628	33387
2254	0	25376	32904	32592	40888	33323	33633	33338
2255	0	10128	32904	32592	40888	33323	33633	33338
2256	0	17312	32920	32560	40736	33341	33653	33318
2257	0	1552	32920	32560	40736	33341	33653	33318
2258	0	34464	32920	32560	40736	33341	33653	33318
2259	0	31760	32940	32664	40776	33332	33640	33363
2260	0	25904	32940	32664	40776	33332	33640	33363
2261	0	45888	32944	32604	40760	33361	33630	33380
2262	0	24256	32944	32604	40760	33361	33630	33380
2263	0	60208	32944	32604	40760	33361	33630	33380
2264	0	50176	32916	32512	40872	33308	33648	33375
2265	0	44944	32916	32512	40872	33308	33648	33375
2266	0	53984	32948	32576	40840	33341	33671	33324
2267	0	26976	32948	32576	40840	33341	33671	33324
2268	0	46400	32948	32576	40840	33341	33671	33324
2269	0	37120	32972	32504	40824	33329	33665	33213
2270	0	31552	32972	32504	40824	33329	33665	33213
2271	0	28064	32912	32544	40816	33331	33663	33338
2272	0	4112	32912	32544	40816	33331	33663	33338
2273	0	27488	32912	32544	40816	33331	33663	33338
2274	0	20800	32928	32580	40848	33325	33641	33370
2275	0	10784	32928	32580	40848	33325	33641	33370
2276	0	22016	32928	32592	40872	33329	33658	33345
2277	0	2816	32928	32592	40872	33329	33658	33345
2278	0	39856	32928	32592	40872	33329	33658	33345
2279	0	30608	32940	32536	40936	33342	33653	33401
2280	0	26160	32940	32536	40936	33342	33653	33401
2281	0	44032	32920	32552	40920	33345	33683	33361
2282	0	24048	32920	32552	40920	33345	33683	33361
2283	0	59792	32920	32552	40920	33345	33683	33361
2284	0	44592	32924	32544	40784	33302	33651	33378
2285	0	52960	32924	32544	40784	33302	33651	33378
2286	0	49760	32956	32588	40856	33332	33636	33368
2287	0	26560	32956	32588	40856	33332	33636	33368
2288	0	54560	32956	32588	40856	33332	33636	33368
2289	0	32128	32948	32592	40888	33328	33684	33357
2290	0	31760	32948	32592	40888	33328	33684	33357
2291	0	29680	32904	32552	40888	33309	33683	33339
2292	0	4320	32904	32552	40888	33309	33683	33339
2293	0	35920	32904	32552	40888	33309	33683	33339
2294	0	18400	32932	32520	40864	33353	33670	33360
2295	0	9920	32932	32520	40864	33353	33670	33360
2296	0	18800	32884	32536	40816	33340	33667	33355
2297	0	1872	32884	32536	40816	33340	33667	33355
2298	0	40112	32884	32536	40816	33340	33667	33355
2299	0	31376	32920	32568	40896	33379	33650	33328
2300	0	27728	32920	32568	40896	33379	33650	33328
2301	0	39792	32932	32544	40904	33351	33663	33334
2302	0	23808	32932	32544	40904	33351	33663	33334
2303	0	60512	32932	32544	40904	33351	33663	33334
2304	0	44336	32924	32552	40888	33336	33636	33333
2305	0	52720	32924	32552	40888	33336	33636	33333
2306	0	50016	32964	32580	40808	33345	33649	33388
2307	0	24656	32964	32580	40808	33345	33649	33388
2308	0	54672	32964	32580	40808	33345	33649	33388
2309	0	33040	32876	32520	40840	33354	33665	33391
2310	0	29424	32876	32520	40840	33354	33665	33391
2311	0	30224	32904	32592	40904	33340	33673	33333
2312	0	6080	32904	32592	40904	33340	33673	33333
2313	0	39120	32904	32592	40904	33340	33673	33333
2314	0	16192	32900	32544	40848	33346	33651	33315
2315	0	12656	32900	32544	40848	33346	33651	33315
2316	0	19360	32944	32568	40856	33354	33643	33372
2317	0	5360	32944	32568	40856	33354	33643	33372
2318	0	40864	32944	32568	40856	33354	33643	33372
2319	0	25360	32932	32520	40800	33332	33649	33394
2320	0	35744	32932	32520	40800	33332	33649	33394
2321	0	40432	32948	32528	40856	33349	33678	33351
2322	0	23904	32948	32528	40856	33349	33678	33351
2323	0	59072	32948	32528	40856	33349	33678	33351
2324	0	44544	32924	32488	40928	33397	33684	33361
2325	0	46736	32924	32488	40928	33397	33684	33361
2326	0	51040	32940	32552	40904	33331	33677	33311
2327	0	28192	32940	32552	40904	33331	33677	33311
2328	0	60480	32940	32552	40904	33331	33677	33311
2329	0	38368	32936	32528	40768	33345	33666	33356
2330	0	26608	32936	32528	40768	33345	33666	33356
2331	0	30464	32916	32560	40856	33340	33673	33359
2332	0	9600	32916	32560	40856	33340	33673	33359
2333	0	36928	32916	32560	40856	33340	33673	33359
2334	0	13728	32904	32572	40896	33344	33648	33361
2335	0	19664	32904	32572	40896	33344	33648	33361
2336	0	19072	32924	32536	40800	33340	33651	33400
2337	0	1280	32924	32536	40800	33340	33651	33400
2338	0	38784	32924	32536	40800	33340	33651	33400
2339	0	23680	32948	32544	40872	33351	33661	33388
2340	0	31664	32948	32544	40872	33351	33661	33388
2341	0	41360	32924	32528	40872	33350	33651	33357
2342	0	28240	32924	32528	40872	33350	33651	33357
2343	0	62688	32924	32528	40872	33350	33651	33357
2344	0	48752	32920	32536	40864	33344	33682	33402
2345	0	44528	32920	32536	40864	33344	33682	33402
2346	0	51216	32920	32568	40864	33341	33662	33358
2347	0	26896	32920	32568	40864	33341	33662	33358
2348	0	54448	32920	32568	40864	33341	33662	33358
2349	0	36768	32940	32496	40896	33354	33665	33336
2350	0	28000	32940	32496	40896	33354	33665	33336
2351	0	32256	32936	32512	40864	33332	33642	33375
2352	0	4448	32936	32512	40864	33332	33642	33375
2353	0	36912	32936	32512	40864	33332	33642	33375
2354	0	17584	32892	32480	40896	33338	33644	33368
2355	0	11280	32892	32480	40896	33338	33644	33368
2356	0	20912	32920	32544	40808	33365	33666	33320
2357	0	5632	32920	32544	40808	33365	33666	33320
2358	0	40944	32920	32544	40808	33365	33666	33320
2359	0	27776	32924	32560	40856	33330	33650	33368
2360	0	35168	32924	32560	40856	33330	33650	33368
2361	0	41904	32920	32568	40888	33339	33661	33343
2362	0	23248	32920	32568	40888	33339	33661	33343
2363	0	57440	32920	32568	40888	33339	33661	33343
2364	0	44464	32920	32536	40904	33358	33664	33369
2365	0	48288	32920	32536	40904	33358	33664	33369
2366	0	52976	32920	32528	40872	33328	33658	33356
2367	0	30672	32920	32528	40872	33328	33658	33356
2368	0	56752	32920	32528	40872	33328	33658	33356
2369	0	37568	32892	32520	40904	33316	33665	33354
2370	0	28832	32892	32520	40904	33316	33665	33354
2371	0	31840	32844	32576	40872	33311	33670	33359
2372	0	9520	32844	32576	40872	33311	33670	33359
2373	0	35216	32844	32576	40872	33311	33670	33359
2374	0	15728	32892	32552	40864	33346	33659	33400
2375	0	11952	32892	32552	40864	33346	33659	33400
2376	0	28912	32904	32576	40880	33326	33671	33279
2377	0	1568	32904	32576	40880	33326	33671	33279
2378	0	38816	32904	32576	40880	33326	33671	33279
2379	0	26272	32960	32612	40808	33307	33669	33362
2380	0	31328	32960	32612	40808	33307	33669	33362
2381	0	42080	32912	32536	40888	33345	33665	33350
2382	0	27344	32912	32536	40888	33345	33665	33350
2383	0	57008	32912	32536	40888	33345	33665	33350
2384	0	49216	32932	32528	40840	33335	33658	33386
2385	0	43056	32932	32528	40840	33335	33658	33386
2386	0	59680	32932	32544	40904	33323	33657	33352
2387	0	26000	32932	32544	40904	33323	33657	33352
2388	0	52128	32932	32544	40904	33323	33657	33352
2389	0	34464	32920	32520	40904	33347	33674	33387
2390	0	37424	32920	32520	40904	33347	33674	33387
2391	0	33696	32936	32504	40956	33326	33668	33342
2392	0	4880	32936	32504	40956	33326	33668	33342
2393	0	32736	32936	32504	40956	33326	33668	33342
2394	0	19776	32940	32528	40824	33352	33668	33365
2395	0	11472	32940	32528	40824	33352	33668	33365
2396	0	22512	32916	32528	40928	33298	33665	33321
2397	0	0	32916	32528	40928	33298	33665	33321
2398	0	37680	32916	32528	40928	33298	33665	33321
2399	0	30432	32916	32568	40936	33344	33652	33352
2400	0	27616	32916	32568	40936	33344	33652	33352
2401	0	43280	32924	32536	40792	33345	33662	33376
2402	0	22112	32924	32536	40792	33345	33662	33376
2403	0	58160	32924	32536	40792	33345	33662	33376
2404	0	49296	32932	32588	40768	33329	33653	33348
2405	0	45408	32932	32588	40768	33329	33653	33348
2406	0	53552	32932	32536	40880	33341	33646	33371
2407	0	30720	32932	32536	40880	33341	33646	33371
2408	0	53648	32932	32536	40880	33341	33646	33371
2409	0	36720	32920	32544	40904	33349	33640	33386
2410	0	34400	32920	32544	40904	33349	33640	33386
2411	0	33856	32936	32568	40800	33351	33670	33399
2412	0	4256	32936	32568	40800	33351	33670	33399
2413	0	31904	32936	32568	40800	33351	33670	33399
2414	0	16368	32924	32576	40792	33356	33669	33341
2415	0	12592	32924	32576	40792	33356	33669	33341
2416	0	23664	32932	32512	40808	33337	33647	33328
2417	0	10336	32932	32512	40808	33337	33647	33328
2418	0	37888	32932	32512	40808	33337	33647	33328
2419	0	30272	32936	32552	40824	33327	33706	33335
2420	0	28512	32936	32552	40824	33327	33706	33335
2421	0	42608	32872	32584	40848	33346	33672	33364
2422	0	28352	32872	32584	40848	33346	33672	33364
2423	0	56928	32872	32584	40848	33346	33672	33364
2424	0	46640	32892	32576	40864	33306	33675	33331
2425	0	50208	32892	32576	40864	33306	33675	33331
2426	0	57936	32876	32604	40904	33315	33650	33282
2427	0	23744	32876	32604	40904	33315	33650	33282
2428	0	50512	32876	32604	40904	33315	33650	33282
2429	0	36048	32912	32576	40924	33326	33683	33318
2430	0	31984	32912	32576	40924	33326	33683	33318
2431	0	34512	32920	32544	40928	33337	33659	33327
2432	0	5712	32920	32544	40928	33337	33659	33327
2433	0	30416	32920	32544	40928	33337	33659	33327
2434	0	16320	32944	32596	40904	33348	33672	33305
2435	0	19824	32944	32596	40904	33348	33672	33305
2436	0	23440	32980	32552	40880	33338	33663	33345
2437	0	3552	32980	32552	40880	33338	33663	33345
2438	0	33632	32980	32552	40880	33338	33663	33345
2439	0	28240	32932	32568	40928	33338	33664	33368
2440	0	29040	32932	32568	40928	33338	33664	33368
2441	0	44864	32960	32536	40856	33340	33644	33330
2442	0	32080	32960	32536	40856	33340	33644	33330
2443	0	57872	32960	32536	40856	33340	33644	33330
2444	0	48096	32912	32528	40808	33335	33656	33335
2445	0	45824	32912	32528	40808	33335	33656	33335
2446	0	55184	32916	32576	40872	33341	33673	33371
2447	0	27072	32916	32576	40872	33341	33673	33371
2448	0	47760	32916	32576	40872	33341	33673	33371
2449	0	39392	32912	32608	40744	33344	33659	33366
2450	0	28736	32912	32608	40744	33344	33659	33366
2451	0	35376	32932	32604	40880	33342	33657	33340
2452	0	3616	32932	32604	40880	33342	33657	33340
2453	0	29552	32932	32604	40880	33342	33657	33340
2454	0	21440	32908	32592	40848	33336	33688	33368
2455	0	11920	32908	32592	40848	33336	33688	33368
2456	0	24368	32936	32536	40808	33347	33680	33384
2457	0	3520	32936	32536	40808	33347	33680	33384
2458	0	24384	32936	32536	40808	33347	33680	33384
2459	0	33120	32924	32564	40824	33346	33647	33350
2460	0	24304	32924	32564	40824	33346	33647	33350
2461	0	45408	32932	32592	40864	33354	33669	33319
