# OpenSignals Text File Format
# {"58:8E:81:A2:49:C7":{"sensor":["gEMG","gACC","gACC","gACC","pMAG","pMAG","pMAG"],"device name":"58:8E:81:A2:49:C7","column":["nSeq","DI","gEMG","gACC","gACC","gACC","pMAG","pMAG","pMAG"],"sync interval":2,"time":"10:59:58","comments":"","keywords":"","device connection":"BTH58:8E:81:A2:49:C7","channels":[1,2,3,4,5,6,7],"date":"2025-07-11","mode":0,"digital IO":[0,1],"firmware version":1026,"device":"musclebanplux","position":0,"sampling rate":1000,"label":["gEMG","gACC","gACC","gACC","pMAG","pMAG","pMAG"],"resolution":[16,16,16,16,16,16,16],"special":[{},{},{},{},{},{},{}],"sleeve color":["UNKNOWN","UNKNOWN","UNKNOWN","UNKNOWN","UNKNOWN","UNKNOWN","UNKNOWN"]}}
# EndOfHeader
0	0	60240	41948	34300	24512	32768	32768	32768
1	0	65520	41948	34300	24512	32768	32768	32768
2	0	65520	41948	34300	24512	32768	32768	32768
3	0	65520	33008	32604	39828	33231	32606	33008
4	0	30816	33008	32604	39828	33231	32606	33008
5	0	38432	32996	32704	40848	33446	32846	33186
6	0	0	32996	32704	40848	33446	32846	33186
7	0	8800	32996	32704	40848	33446	32846	33186
8	0	0	32952	32696	40928	33451	32872	33191
9	0	0	32952	32696	40928	33451	32872	33191
10	0	0	33012	32704	40912	33459	32894	33177
11	0	0	33012	32704	40912	33459	32894	33177
12	0	0	33012	32704	40912	33459	32894	33177
13	0	0	32964	32688	40936	33434	32875	33202
14	0	13488	32964	32688	40936	33434	32875	33202
15	0	59440	32964	32688	40936	33434	32875	33202
16	0	59408	33012	32720	40968	33431	32861	33205
17	0	65120	33012	32720	40968	33431	32861	33205
18	0	65520	33000	32688	41028	33450	32870	33197
19	0	65520	33000	32688	41028	33450	32870	33197
20	0	65520	33000	32688	41028	33450	32870	33197
21	0	65520	33008	32696	40872	33436	32879	33187
22	0	65520	33008	32696	40872	33436	32879	33187
23	0	65520	32988	32728	40936	33428	32879	33249
24	0	25712	32988	32728	40936	33428	32879	33249
25	0	38496	32988	32728	40936	33428	32879	33249
26	0	0	33016	32744	40944	33426	32886	33214
27	0	0	33016	32744	40944	33426	32886	33214
28	0	0	32984	32712	40920	33430	32864	33200
29	0	0	32984	32712	40920	33430	32864	33200
30	0	0	32984	32712	40920	33430	32864	33200
31	0	0	32988	32688	40880	33447	32881	33186
32	0	0	32988	32688	40880	33447	32881	33186
33	0	0	32948	32704	40936	33438	32865	33190
34	0	0	32948	32704	40936	33438	32865	33190
35	0	64032	32948	32704	40936	33438	32865	33190
36	0	61456	32992	32736	40920	33435	32884	33181
37	0	65520	32992	32736	40920	33435	32884	33181
38	0	65520	32992	32736	40920	33435	32884	33181
39	0	65520	33020	32720	41028	33469	32879	33183
40	0	65520	33020	32720	41028	33469	32879	33183
41	0	65520	32988	32712	40968	33444	32871	33178
42	0	62000	32988	32712	40968	33444	32871	33178
43	0	65520	32988	32712	40968	33444	32871	33178
44	0	58080	32984	32764	40912	33436	32873	33165
45	0	12256	32984	32764	40912	33436	32873	33165
46	0	7232	32988	32720	40880	33434	32856	33181
47	0	0	32988	32720	40880	33434	32856	33181
48	0	0	32988	32720	40880	33434	32856	33181
49	0	0	33000	32720	41000	33443	32866	33214
50	0	0	33000	32720	41000	33443	32866	33214
51	0	0	32932	32728	40928	33453	32888	33218
52	0	0	32932	32728	40928	33453	32888	33218
53	0	0	32932	32728	40928	33453	32888	33218
54	0	20608	32988	32744	40952	33447	32891	33228
55	0	47088	32988	32744	40952	33447	32891	33228
56	0	65520	33000	32720	40976	33451	32881	33183
57	0	65520	33000	32720	40976	33451	32881	33183
58	0	65520	33000	32720	40976	33451	32881	33183
59	0	65520	33008	32704	40952	33421	32867	33202
60	0	65520	33008	32704	40952	33421	32867	33202
61	0	65520	33008	32704	40952	33421	32867	33202
62	0	65520	33000	32704	40872	33432	32887	33165
63	0	65520	33000	32704	40872	33432	32887	33165
64	0	57696	32996	32728	40880	33413	32877	33231
65	0	2272	32996	32728	40880	33413	32877	33231
66	0	8112	32996	32728	40880	33413	32877	33231
67	0	0	32952	32704	40920	33426	32870	33252
68	0	0	32952	32704	40920	33426	32870	33252
69	0	0	32976	32720	40864	33451	32881	33239
70	0	0	32976	32720	40864	33451	32881	33239
71	0	0	32976	32720	40864	33451	32881	33239
72	0	0	33004	32680	40864	33428	32878	33221
73	0	0	33004	32680	40864	33428	32878	33221
74	0	22656	32944	32712	40968	33434	32900	33218
75	0	33088	32944	32712	40968	33434	32900	33218
76	0	65520	32944	32712	40968	33434	32900	33218
77	0	55936	33000	32736	40944	33432	32876	33178
78	0	65520	33000	32736	40944	33432	32876	33178
79	0	65520	33008	32744	40952	33434	32883	33194
80	0	65520	33008	32744	40952	33434	32883	33194
81	0	65520	33008	32744	40952	33434	32883	33194
82	0	65520	32996	32720	40952	33418	32880	33184
83	0	60688	32996	32720	40952	33418	32880	33184
84	0	57200	33020	32704	40984	33447	32894	33152
85	0	0	33020	32704	40984	33447	32894	33152
86	0	0	33020	32704	40984	33447	32894	33152
87	0	2624	32952	32736	40968	33465	32874	33207
88	0	0	32952	32736	40968	33465	32874	33207
89	0	0	32952	32736	40968	33465	32874	33207
90	0	0	32940	32704	40928	33435	32869	33195
91	0	0	32940	32704	40928	33435	32869	33195
92	0	0	32936	32720	40912	33427	32872	33209
93	0	0	32936	32720	40912	33427	32872	33209
94	0	18432	32936	32720	40912	33427	32872	33209
95	0	48880	32952	32744	40880	33458	32891	33180
96	0	55152	32952	32744	40880	33458	32891	33180
97	0	65520	33020	32712	40880	33460	32897	33230
98	0	65520	33020	32712	40880	33460	32897	33230
99	0	65520	33020	32712	40880	33460	32897	33230
100	0	65520	33000	32704	40928	33447	32882	33191
101	0	65520	33000	32704	40928	33447	32882	33191
102	0	65520	32992	32736	40920	33428	32888	33235
103	0	54160	32992	32736	40920	33428	32888	33235
104	0	65520	32992	32736	40920	33428	32888	33235
105	0	23936	32972	32704	40936	33439	32874	33171
106	0	0	32972	32704	40936	33439	32874	33171
107	0	0	32996	32712	40936	33432	32852	33171
108	0	0	32996	32712	40936	33432	32852	33171
109	0	0	32996	32712	40936	33432	32852	33171
110	0	0	33008	32720	40920	33431	32885	33186
111	0	0	33008	32720	40920	33431	32885	33186
112	0	0	33008	32720	40920	33431	32885	33186
113	0	0	33020	32704	40872	33447	32874	33231
114	0	18544	33020	32704	40872	33447	32874	33231
115	0	43408	33004	32696	40896	33451	32880	33159
116	0	44784	33004	32696	40896	33451	32880	33159
117	0	65520	33004	32696	40896	33451	32880	33159
118	0	65520	32972	32696	40952	33449	32876	33194
119	0	65520	32972	32696	40952	33449	32876	33194
120	0	65520	33012	32696	40928	33446	32888	33210
121	0	65520	33012	32696	40928	33446	32888	33210
122	0	65520	33012	32696	40928	33446	32888	33210
123	0	65520	33020	32736	40888	33438	32898	33206
124	0	47328	33020	32736	40888	33438	32898	33206
125	0	30736	32992	32688	40880	33475	32892	33206
126	0	0	32992	32688	40880	33475	32892	33206
127	0	0	32992	32688	40880	33475	32892	33206
128	0	0	32992	32720	40976	33423	32887	33182
129	0	0	32992	32720	40976	33423	32887	33182
130	0	0	32972	32704	40992	33454	32880	33206
131	0	0	32972	32704	40992	33454	32880	33206
132	0	0	32972	32704	40992	33454	32880	33206
133	0	0	32976	32768	40928	33423	32880	33183
134	0	0	32976	32768	40928	33423	32880	33183
135	0	65520	32964	32704	41000	33430	32891	33239
136	0	48752	32964	32704	41000	33430	32891	33239
137	0	65520	32964	32704	41000	33430	32891	33239
138	0	65520	32988	32712	40896	33442	32884	33189
139	0	65520	32988	32712	40896	33442	32884	33189
140	0	65520	32988	32712	40896	33442	32884	33189
141	0	65520	32976	32696	40928	33442	32895	33200
142	0	65520	32976	32696	40928	33442	32895	33200
143	0	65520	33000	32648	40896	33440	32876	33161
144	0	39232	33000	32648	40896	33440	32876	33161
145	0	37808	33000	32648	40896	33440	32876	33161
146	0	2560	32968	32736	40912	33436	32872	33192
147	0	0	32968	32736	40912	33436	32872	33192
148	0	0	32952	32720	40888	33442	32904	33224
149	0	0	32952	32720	40888	33442	32904	33224
150	0	0	32952	32720	40888	33442	32904	33224
151	0	0	32996	32672	40856	33431	32872	33207
152	0	0	32996	32672	40856	33431	32872	33207
153	0	0	32992	32704	40840	33426	32906	33225
154	0	0	32992	32704	40840	33426	32906	33225
155	0	65520	32992	32704	40840	33426	32906	33225
156	0	60128	32980	32712	40888	33444	32882	33208
157	0	62880	32980	32712	40888	33444	32882	33208
158	0	65520	33036	32696	40888	33434	32863	33264
159	0	65520	33036	32696	40888	33434	32863	33264
160	0	65520	33036	32696	40888	33434	32863	33264
161	0	65520	33000	32744	40920	33432	32881	33200
162	0	65520	33000	32744	40920	33432	32881	33200
163	0	65520	33000	32744	40920	33432	32881	33200
164	0	59168	32984	32728	40904	33429	32879	33222
165	0	25152	32984	32728	40904	33429	32879	33222
166	0	0	32924	32688	40944	32713	32883	33172
167	0	0	32924	32688	40944	32713	32883	33172
168	0	0	32924	32688	40944	32713	32883	33172
169	0	0	32948	32720	40968	33404	32884	33144
170	0	0	32948	32720	40968	33404	32884	33144
171	0	0	33008	32744	41044	33438	32844	33185
172	0	0	33008	32744	41044	33438	32844	33185
173	0	4880	33008	32744	41044	33438	32844	33185
174	0	16352	33000	32704	40872	33453	32867	33214
175	0	39072	33000	32704	40872	33453	32867	33214
176	0	65520	32992	32704	40952	33460	32876	33151
177	0	53824	32992	32704	40952	33460	32876	33151
178	0	65520	32992	32704	40952	33460	32876	33151
179	0	65520	33020	32728	40976	33444	32881	33156
180	0	65520	33020	32728	40976	33444	32881	33156
181	0	65520	32920	32704	40920	33435	32877	33222
182	0	65520	32920	32704	40920	33435	32877	33222
183	0	65520	32920	32704	40920	33435	32877	33222
184	0	61040	32932	32704	40944	33467	32865	33173
185	0	6944	32932	32704	40944	33467	32865	33173
186	0	2240	32932	32704	40944	33467	32865	33173
187	0	0	32976	32696	40968	33458	32860	33152
188	0	0	32976	32696	40968	33458	32860	33152
189	0	0	32964	32688	40960	33445	32879	33191
190	0	0	32964	32688	40960	33445	32879	33191
191	0	0	32964	32688	40960	33445	32879	33191
192	0	0	32980	32704	40896	33439	32894	33239
193	0	0	32980	32704	40896	33439	32894	33239
194	0	5200	32988	32688	41000	33464	32886	33214
195	0	28240	32988	32688	41000	33464	32886	33214
196	0	65520	32988	32688	41000	33464	32886	33214
197	0	65520	33012	32756	40968	33432	32871	33191
198	0	65520	33012	32756	40968	33432	32871	33191
199	0	65520	33000	32712	40912	33455	32879	33199
200	0	65520	33000	32712	40912	33455	32879	33199
201	0	65520	33000	32712	40912	33455	32879	33199
202	0	65520	32936	32712	40936	33458	32865	33226
203	0	65520	32936	32712	40936	33458	32865	33226
204	0	52976	33008	32704	40904	33435	32879	33217
205	0	5088	33008	32704	40904	33435	32879	33217
206	0	5280	33008	32704	40904	33435	32879	33217
207	0	848	33000	32728	40976	33425	32877	33229
208	0	0	33000	32728	40976	33425	32877	33229
209	0	0	33000	32696	40936	33447	32899	33233
210	0	0	33000	32696	40936	33447	32899	33233
211	0	0	33000	32696	40936	33447	32899	33233
212	0	0	32960	32688	40912	33414	32882	33200
213	0	0	32960	32688	40912	33414	32882	33200
214	0	13136	32960	32688	40912	33414	32882	33200
215	0	47024	32988	32664	40888	33451	32873	33219
216	0	63456	32988	32664	40888	33451	32873	33219
217	0	65520	33024	32728	40872	33443	32897	33231
218	0	65520	33024	32728	40872	33443	32897	33231
219	0	65520	33024	32728	40872	33443	32897	33231
220	0	65520	32984	32688	40944	33436	32890	33192
221	0	65520	32984	32688	40944	33436	32890	33192
222	0	65520	32972	32728	40936	33444	32881	33199
223	0	59568	32972	32728	40936	33444	32881	33199
224	0	65520	32972	32728	40936	33444	32881	33199
225	0	25392	32980	32712	40960	33465	32884	33196
226	0	0	32980	32712	40960	33465	32884	33196
227	0	2864	32992	32744	40928	33433	32885	33192
228	0	0	32992	32744	40928	33433	32885	33192
229	0	0	32992	32744	40928	33433	32885	33192
230	0	0	32996	32712	41024	33456	32871	33199
231	0	0	32996	32712	41024	33456	32871	33199
232	0	0	33000	32696	40944	33446	32873	33222
233	0	0	33000	32696	40944	33446	32873	33222
234	0	22128	33000	32696	40944	33446	32873	33222
235	0	43376	32944	32720	40944	33446	32886	33193
236	0	65520	32944	32720	40944	33446	32886	33193
237	0	65520	32944	32720	40944	33446	32886	33193
238	0	65520	32956	32672	40912	33459	32872	33223
239	0	65520	32956	32672	40912	33459	32872	33223
240	0	65520	33020	32712	41000	33419	32868	33222
241	0	65520	33020	32712	41000	33419	32868	33222
242	0	65520	33020	32712	41000	33419	32868	33222
243	0	65520	33008	32688	40952	33438	32890	33232
244	0	64560	33008	32688	40952	33438	32890	33232
245	0	28208	32996	32664	40936	33441	32882	33251
246	0	0	32996	32664	40936	33441	32882	33251
247	0	14272	32996	32664	40936	33441	32882	33251
248	0	0	33012	32728	40928	33463	32878	33225
249	0	0	33012	32728	40928	33463	32878	33225
250	0	0	33008	32680	40888	33456	32870	33249
251	0	0	33008	32680	40888	33456	32870	33249
252	0	2256	33008	32680	40888	33456	32870	33249
253	0	0	32976	32736	40896	33440	32894	33201
254	0	0	32976	32736	40896	33440	32894	33201
255	0	55664	32980	32672	40936	33455	32865	33219
256	0	50752	32980	32672	40936	33455	32865	33219
257	0	65520	32980	32672	40936	33455	32865	33219
258	0	65520	32980	32672	40912	33445	32868	33180
259	0	65520	32980	32672	40912	33445	32868	33180
260	0	65520	32984	32712	41028	33430	32859	33173
261	0	65520	32984	32712	41028	33430	32859	33173
262	0	65520	32984	32712	41028	33430	32859	33173
263	0	65520	32940	32704	40928	33436	32865	33195
264	0	41136	32940	32704	40928	33436	32865	33195
265	0	37392	32940	32704	40928	33436	32865	33195
266	0	9152	33012	32688	40904	33444	32880	33179
267	0	0	33012	32688	40904	33444	32880	33179
268	0	0	32952	32704	40952	33445	32878	33253
269	0	0	32952	32704	40952	33445	32878	33253
270	0	0	32952	32704	40952	33445	32878	33253
271	0	0	32976	32688	40952	33443	32873	33212
272	0	0	32976	32688	40952	33443	32873	33212
273	0	0	32988	32704	40896	33460	32883	33162
274	0	0	32988	32704	40896	33460	32883	33162
275	0	57360	32988	32704	40896	33460	32883	33162
276	0	60288	32952	32728	40944	33460	32877	33183
277	0	55872	32952	32728	40944	33460	32877	33183
278	0	65520	32952	32720	40968	33449	32874	33214
279	0	65520	32952	32720	40968	33449	32874	33214
280	0	65520	32952	32720	40968	33449	32874	33214
281	0	65520	33012	32720	40936	33468	32893	33191
282	0	65520	33012	32720	40936	33468	32893	33191
283	0	65520	32972	32696	40976	33455	32890	33203
284	0	33200	32972	32696	40976	33455	32890	33203
285	0	32368	32972	32696	40976	33455	32890	33203
286	0	13232	32952	32696	40920	33434	32881	33199
287	0	0	32952	32696	40920	33434	32881	33199
288	0	0	32952	32696	40920	33434	32881	33199
289	0	0	32964	32704	40920	33436	32880	33223
290	0	0	32964	32704	40920	33436	32880	33223
291	0	0	32972	32696	40944	33401	32870	33188
292	0	0	32972	32696	40944	33401	32870	33188
293	0	0	32972	32696	40944	33401	32870	33188
294	0	26320	32984	32744	40920	33422	32870	33201
295	0	35008	32984	32744	40920	33422	32870	33201
296	0	62496	32984	32712	40936	33428	32887	33261
297	0	55056	32984	32712	40936	33428	32887	33261
298	0	65520	32984	32712	40936	33428	32887	33261
299	0	65520	32992	32680	40968	33435	32859	33207
300	0	65520	32992	32680	40968	33435	32859	33207
301	0	65520	32964	32672	40984	33425	32862	33158
302	0	65520	32964	32672	40984	33425	32862	33158
303	0	65520	32964	32672	40984	33425	32862	33158
304	0	46016	33000	32720	40936	33456	32869	33189
305	0	16000	33000	32720	40936	33456	32869	33189
306	0	7344	32980	32696	41008	33446	32865	33193
307	0	0	32980	32696	41008	33446	32865	33193
308	0	0	32980	32696	41008	33446	32865	33193
309	0	0	33012	32656	40912	33439	32899	33223
310	0	0	33012	32656	40912	33439	32899	33223
311	0	0	33000	32744	40968	33455	32906	33178
312	0	0	33000	32744	40968	33455	32906	33178
313	0	0	33000	32744	40968	33455	32906	33178
314	0	15760	32992	32672	40928	33453	32867	33174
315	0	32080	32992	32672	40928	33453	32867	33174
316	0	65520	32992	32672	40928	33453	32867	33174
317	0	65520	32952	32712	40944	33457	32890	33231
318	0	65520	32952	32712	40944	33457	32890	33231
319	0	65520	33020	32712	40984	33434	32885	33239
320	0	65520	33020	32712	40984	33434	32885	33239
321	0	65520	33020	32712	40984	33434	32885	33239
322	0	65520	33012	32688	40896	33454	32876	33201
323	0	65520	33012	32688	40896	33454	32876	33201
324	0	60016	33004	32744	40840	33446	32883	33243
325	0	4272	33004	32744	40840	33446	32883	33243
326	0	11504	33004	32744	40840	33446	32883	33243
327	0	0	32952	32704	40936	33433	32887	33208
328	0	0	32952	32704	40936	33433	32887	33208
329	0	0	32992	32680	40936	33448	32859	33227
330	0	0	32992	32680	40936	33448	32859	33227
331	0	0	32992	32680	40936	33448	32859	33227
332	0	0	33008	32728	40944	33445	32880	33174
333	0	0	33008	32728	40944	33445	32880	33174
334	0	11280	33000	32704	40896	33452	32890	33236
335	0	48448	33000	32704	40896	33452	32890	33236
336	0	65520	33000	32704	40896	33452	32890	33236
337	0	63248	32996	32736	40968	33449	32859	33206
338	0	65520	32996	32736	40968	33449	32859	33206
339	0	65520	32996	32736	40968	33449	32859	33206
340	0	65520	32964	32760	40944	33435	32871	33235
341	0	65520	32964	32760	40944	33435	32871	33235
342	0	65520	32960	32704	41000	33419	32883	33226
343	0	55360	32960	32704	41000	33419	32883	33226
344	0	65520	32960	32704	41000	33419	32883	33226
345	0	22080	32960	32720	40944	33446	32872	33163
346	0	0	32960	32720	40944	33446	32872	33163
347	0	0	32972	32720	40912	33418	32867	33212
348	0	0	32972	32720	40912	33418	32867	33212
349	0	0	32972	32720	40912	33418	32867	33212
350	0	0	33016	32720	40952	33436	32873	33203
351	0	0	33016	32720	40952	33436	32873	33203
352	0	0	32996	32736	40976	33446	32866	33245
353	0	0	32996	32736	40976	33446	32866	33245
354	0	32160	32996	32736	40976	33446	32866	33245
355	0	44032	33000	32728	40864	33464	32862	33189
356	0	54624	33000	32728	40864	33464	32862	33189
357	0	65520	33032	32704	40960	33445	32865	33205
358	0	65520	33032	32704	40960	33445	32865	33205
359	0	65520	33032	32704	40960	33445	32865	33205
360	0	65520	32992	32744	40936	33435	32872	33212
361	0	65520	32992	32744	40936	33435	32872	33212
362	0	65520	32988	32752	40984	33442	32868	33201
363	0	43744	32988	32752	40984	33442	32868	33201
364	0	45344	32988	32752	40984	33442	32868	33201
365	0	32784	32964	32720	40912	33429	32863	33232
366	0	0	32964	32720	40912	33429	32863	33232
367	0	0	32964	32720	40912	33429	32863	33232
368	0	0	32976	32680	40896	33436	32872	33210
369	0	0	32976	32680	40896	33436	32872	33210
370	0	0	32976	32712	40944	33471	32874	33219
371	0	0	32976	32712	40944	33471	32874	33219
372	0	0	32976	32712	40944	33471	32874	33219
373	0	0	33000	32712	40920	33456	32878	33241
374	0	8144	33000	32712	40920	33456	32878	33241
375	0	46352	33008	32688	40904	33460	32869	33211
376	0	50176	33008	32688	40904	33460	32869	33211
377	0	65520	33008	32688	40904	33460	32869	33211
378	0	65520	32972	32696	40960	33432	32871	33180
379	0	65520	32972	32696	40960	33432	32871	33180
380	0	65520	32992	32688	40976	33449	32883	33185
381	0	65520	32992	32688	40976	33449	32883	33185
382	0	65520	32992	32688	40976	33449	32883	33185
383	0	65520	32960	32696	41000	33438	32875	33191
384	0	44288	32960	32696	41000	33438	32875	33191
385	0	36176	32984	32720	40912	33436	32880	33179
386	0	0	32984	32720	40912	33436	32880	33179
387	0	304	32984	32720	40912	33436	32880	33179
388	0	0	33008	32760	40976	33459	32878	33215
389	0	0	33008	32760	40976	33459	32878	33215
390	0	0	33008	32760	40976	33459	32878	33215
391	0	0	33000	32712	41000	33446	32865	33171
392	0	0	33000	32712	41000	33446	32865	33171
393	0	0	32988	32688	40992	33461	32871	33218
394	0	0	32988	32688	40992	33461	32871	33218
395	0	56752	32988	32688	40992	33461	32871	33218
396	0	57696	32956	32688	41052	33454	32896	33217
397	0	52032	32956	32688	41052	33454	32896	33217
398	0	65520	32992	32688	41000	33413	32877	33157
399	0	65520	32992	32688	41000	33413	32877	33157
400	0	65520	32992	32688	41000	33413	32877	33157
401	0	65520	33000	32680	40920	33453	32878	33170
402	0	65520	33000	32680	40920	33453	32878	33170
403	0	65520	32968	32744	40912	33419	32883	33228
404	0	20800	32968	32744	40912	33419	32883	33228
405	0	37248	32968	32744	40912	33419	32883	33228
406	0	11520	32908	32728	40912	33435	32889	33210
407	0	0	32908	32728	40912	33435	32889	33210
408	0	0	33000	32736	40912	33430	32888	33241
409	0	0	33000	32736	40912	33430	32888	33241
410	0	0	33000	32736	40912	33430	32888	33241
411	0	0	33012	32688	40944	33439	32895	33191
412	0	0	33012	32688	40944	33439	32895	33191
413	0	0	32952	32728	40928	33446	32859	33247
414	0	0	32952	32728	40928	33446	32859	33247
415	0	41696	32952	32728	40928	33446	32859	33247
416	0	65520	32952	32748	40952	33431	32841	33199
417	0	65520	32952	32748	40952	33431	32841	33199
418	0	65520	32952	32748	40952	33431	32841	33199
419	0	65520	32980	32688	40952	33435	32859	33225
420	0	65520	32980	32688	40952	33435	32859	33225
421	0	65520	32984	32696	40928	33448	32878	33183
422	0	65520	32984	32696	40928	33448	32878	33183
423	0	65520	32984	32696	40928	33448	32878	33183
424	0	59408	32992	32712	40928	33443	32868	33191
425	0	16832	32992	32712	40928	33443	32868	33191
426	0	4992	32992	32704	40936	33449	32884	33252
427	0	0	32992	32704	40936	33449	32884	33252
428	0	0	32992	32704	40936	33449	32884	33252
429	0	0	32992	32680	40968	33439	32877	33189
430	0	0	32992	32680	40968	33439	32877	33189
431	0	0	32952	32720	40936	33421	32875	33156
432	0	0	32952	32720	40936	33421	32875	33156
433	0	0	32952	32720	40936	33421	32875	33156
434	0	16080	33032	32696	40896	33436	32898	33155
435	0	43264	33032	32696	40896	33436	32898	33155
436	0	65520	32960	32720	40904	33457	32883	33219
437	0	64368	32960	32720	40904	33457	32883	33219
438	0	65520	32960	32720	40904	33457	32883	33219
439	0	65520	32968	32712	40808	33464	32871	33187
440	0	65520	32968	32712	40808	33464	32871	33187
441	0	65520	32968	32712	40808	33464	32871	33187
442	0	65520	32980	32720	41016	33450	32873	33174
443	0	65520	32980	32720	41016	33450	32873	33174
444	0	44944	33008	32712	40928	33470	32885	33201
445	0	14160	33008	32712	40928	33470	32885	33201
446	0	12752	33008	32712	40928	33470	32885	33201
447	0	0	32980	32712	40904	33477	32879	33216
448	0	0	32980	32712	40904	33477	32879	33216
449	0	0	32976	32736	40960	33448	32875	33169
450	0	0	32976	32736	40960	33448	32875	33169
451	0	0	32976	32736	40960	33448	32875	33169
452	0	0	32996	32696	41012	33195	32887	33198
453	0	0	32996	32696	41012	33195	32887	33198
454	0	19856	32988	32728	40960	33415	32880	33212
455	0	20304	32988	32728	40960	33415	32880	33212
456	0	65520	32988	32728	40960	33415	32880	33212
457	0	65520	32984	32696	41000	33452	32867	33176
458	0	65520	32984	32696	41000	33452	32867	33176
459	0	65520	32976	32720	40936	33427	32892	33206
460	0	65520	32976	32720	40936	33427	32892	33206
461	0	65520	32976	32720	40936	33427	32892	33206
462	0	65520	32968	32696	40960	33428	32863	33199
463	0	59504	32968	32696	40960	33428	32863	33199
464	0	65520	32968	32696	40960	33428	32863	33199
465	0	25344	32960	32728	40992	33444	32865	33145
466	0	17456	32960	32728	40992	33444	32865	33145
467	0	0	32976	32752	40912	33441	32871	33212
468	0	0	32976	32752	40912	33441	32871	33212
469	0	0	32976	32752	40912	33441	32871	33212
470	0	0	33008	32728	40912	33481	32893	33254
471	0	0	33008	32728	40912	33481	32893	33254
472	0	0	32968	32748	40928	33440	32893	33244
473	0	0	32968	32748	40928	33440	32893	33244
474	0	34512	32968	32748	40928	33440	32893	33244
475	0	40688	32928	32664	40936	33444	32861	33215
476	0	55120	32928	32664	40936	33444	32861	33215
477	0	65520	33000	32728	40976	33442	32868	33165
478	0	65520	33000	32728	40976	33442	32868	33165
479	0	65520	33000	32728	40976	33442	32868	33165
480	0	65520	33012	32704	40996	33440	32873	33205
481	0	65520	33012	32704	40996	33440	32873	33205
482	0	65520	32956	32688	40928	33454	32852	33182
483	0	50624	32956	32688	40928	33454	32852	33182
484	0	65520	32956	32688	40928	33454	32852	33182
485	0	30736	32940	32728	40952	33452	32873	33209
486	0	0	32940	32728	40952	33452	32873	33209
487	0	1408	32988	32728	40984	33439	32883	33223
488	0	0	32988	32728	40984	33439	32883	33223
489	0	0	32988	32728	40984	33439	32883	33223
490	0	0	32992	32688	41000	33434	32881	33199
491	0	0	32992	32688	41000	33434	32881	33199
492	0	0	32992	32688	41000	33434	32881	33199
493	0	0	32980	32736	40928	33449	32882	33191
494	0	25632	32980	32736	40928	33449	32882	33191
495	0	42288	32980	32728	40912	33465	32880	33191
496	0	47856	32980	32728	40912	33465	32880	33191
497	0	65520	32980	32728	40912	33465	32880	33191
498	0	65520	32988	32736	40944	33444	32900	33180
499	0	65520	32988	32736	40944	33444	32900	33180
500	0	65520	32948	32712	41012	33448	32873	33173
501	0	65520	32948	32712	41012	33448	32873	33173
502	0	65520	32948	32712	41012	33448	32873	33173
503	0	65520	32996	32712	40968	33452	32871	33166
504	0	46080	32996	32712	40968	33452	32871	33166
505	0	30240	32984	32752	40936	33433	32878	33247
506	0	0	32984	32752	40936	33433	32878	33247
507	0	6192	32984	32752	40936	33433	32878	33247
508	0	0	32956	32712	40904	33447	32888	33188
509	0	0	32956	32712	40904	33447	32888	33188
510	0	0	32948	32720	40984	33434	32884	33221
511	0	0	32948	32720	40984	33434	32884	33221
512	0	0	32948	32720	40984	33434	32884	33221
513	0	0	32964	32704	40996	33449	32868	33206
514	0	8944	32964	32704	40996	33449	32868	33206
515	0	54992	33000	32712	40888	32778	32870	33169
516	0	37296	33000	32712	40888	32778	32870	33169
517	0	65136	33000	32712	40888	32778	32870	33169
518	0	65520	32944	32728	40904	33402	32898	33203
519	0	65520	32944	32728	40904	33402	32898	33203
520	0	65520	32944	32728	40904	33402	32898	33203
521	0	65520	33020	32696	40864	33416	32871	33238
522	0	65520	33020	32696	40864	33416	32871	33238
523	0	65520	32980	32712	40936	33433	32882	33210
524	0	24208	32980	32712	40936	33433	32882	33210
525	0	56144	32980	32712	40936	33433	32882	33210
526	0	0	33000	32712	40880	33436	32864	33220
527	0	0	33000	32712	40880	33436	32864	33220
528	0	0	32976	32688	40976	33448	32879	33180
529	0	0	32976	32688	40976	33448	32879	33180
530	0	0	32976	32688	40976	33448	32879	33180
531	0	0	33000	32696	40896	33472	32882	33214
532	0	0	33000	32696	40896	33472	32882	33214
533	0	0	32928	32736	40928	33431	32882	33243
534	0	0	32928	32736	40928	33431	32882	33243
535	0	54656	32928	32736	40928	33431	32882	33243
536	0	64208	32952	32720	40880	33441	32883	33199
537	0	63728	32952	32720	40880	33441	32883	33199
538	0	65520	32952	32728	40896	33419	32894	33173
539	0	65520	32952	32728	40896	33419	32894	33173
540	0	65520	32952	32728	40896	33419	32894	33173
541	0	65520	32972	32712	40896	33440	32879	33195
542	0	65520	32972	32712	40896	33440	32879	33195
543	0	65520	32972	32712	40896	33440	32879	33195
544	0	55792	32932	32696	40888	33444	32855	33191
545	0	23584	32932	32696	40888	33444	32855	33191
546	0	9840	33000	32696	40920	33437	32870	33195
547	0	0	33000	32696	40920	33437	32870	33195
548	0	0	33000	32696	40920	33437	32870	33195
549	0	0	33004	32736	40872	33421	32880	33218
550	0	0	33004	32736	40872	33421	32880	33218
551	0	0	32980	32744	40896	33447	32878	33207
552	0	0	32980	32744	40896	33447	32878	33207
553	0	0	32980	32744	40896	33447	32878	33207
554	0	16176	32976	32712	40920	33477	32862	33215
555	0	39408	32976	32712	40920	33477	32862	33215
556	0	65520	32980	32728	40872	33465	32884	33242
557	0	53472	32980	32728	40872	33465	32884	33242
558	0	65520	32980	32728	40872	33465	32884	33242
559	0	65520	32964	32752	40888	33443	32874	33194
560	0	65520	32964	32752	40888	33443	32874	33194
561	0	65520	32952	32696	40944	33444	32890	33224
562	0	65520	32952	32696	40944	33444	32890	33224
563	0	65520	32952	32696	40944	33444	32890	33224
564	0	59040	32932	32712	40928	33457	32890	33203
565	0	8928	32932	32712	40928	33457	32890	33203
566	0	9616	32980	32720	40912	33466	32876	33174
567	0	0	32980	32720	40912	33466	32876	33174
568	0	0	32980	32720	40912	33466	32876	33174
569	0	0	33020	32696	40864	33433	32885	33190
570	0	0	33020	32696	40864	33433	32885	33190
571	0	0	33020	32696	40864	33433	32885	33190
572	0	0	33012	32736	40952	33454	32875	33164
573	0	0	33012	32736	40952	33454	32875	33164
574	0	16192	33056	32696	40952	33464	32892	33179
575	0	18880	33056	32696	40952	33464	32892	33179
576	0	65520	33056	32696	40952	33464	32892	33179
577	0	61200	33008	32680	40928	33449	32868	33176
578	0	65520	33008	32680	40928	33449	32868	33176
579	0	65520	32992	32736	40880	33424	32882	33230
580	0	65520	32992	32736	40880	33424	32882	33230
581	0	65520	32992	32736	40880	33424	32882	33230
582	0	65520	33000	32704	40960	33443	32871	33221
583	0	65520	33000	32704	40960	33443	32871	33221
584	0	62672	32992	32672	40872	33434	32885	33177
585	0	0	32992	32672	40872	33434	32885	33177
586	0	15872	32992	32672	40872	33434	32885	33177
587	0	0	32964	32688	40944	33429	32873	33205
588	0	0	32964	32688	40944	33429	32873	33205
589	0	0	32980	32672	40976	33427	32875	33215
590	0	0	32980	32672	40976	33427	32875	33215
591	0	0	32980	32672	40976	33427	32875	33215
592	0	0	32952	32688	41004	33440	32870	33185
593	0	0	32952	32688	41004	33440	32870	33185
594	0	27792	32952	32688	41004	33440	32870	33185
595	0	32864	33000	32680	40904	33203	32881	33196
596	0	65520	33000	32680	40904	33203	32881	33196
597	0	64272	33016	32696	40808	33411	32884	33217
598	0	65520	33016	32696	40808	33411	32884	33217
599	0	65520	33016	32696	40808	33411	32884	33217
600	0	65520	32992	32736	40912	33441	32862	33225
601	0	65520	32992	32736	40912	33441	32862	33225
602	0	65520	33024	32696	40856	33451	32910	33254
603	0	62784	33024	32696	40856	33451	32910	33254
604	0	65520	33024	32696	40856	33451	32910	33254
605	0	26752	32992	32720	40928	33434	32859	33195
606	0	0	32992	32720	40928	33434	32859	33195
607	0	4576	32984	32696	40888	33436	32877	33223
608	0	0	32984	32696	40888	33436	32877	33223
609	0	0	32984	32696	40888	33436	32877	33223
610	0	0	32968	32756	40992	33429	32882	33198
611	0	0	32968	32756	40992	33429	32882	33198
612	0	0	32984	32712	40888	33438	32867	33217
613	0	0	32984	32712	40888	33438	32867	33217
614	0	7216	32984	32712	40888	33438	32867	33217
615	0	56304	32992	32720	40968	33434	32884	33203
616	0	61120	32992	32720	40968	33434	32884	33203
617	0	65520	32988	32696	41008	33463	32868	33222
618	0	65520	32988	32696	41008	33463	32868	33222
619	0	65520	32988	32696	41008	33463	32868	33222
620	0	65520	32980	32720	40984	33429	32867	33188
621	0	65520	32980	32720	40984	33429	32867	33188
622	0	65520	32980	32720	40984	33429	32867	33188
623	0	65520	32988	32712	40896	33441	32886	33216
624	0	40448	32988	32712	40896	33441	32886	33216
625	0	45904	32992	32696	40920	33448	32882	33241
626	0	0	32992	32696	40920	33448	32882	33241
627	0	6528	32992	32696	40920	33448	32882	33241
628	0	0	32924	32768	40848	33465	32906	33227
629	0	0	32924	32768	40848	33465	32906	33227
630	0	0	33000	32728	40912	33433	32895	33202
631	0	0	33000	32728	40912	33433	32895	33202
632	0	0	33000	32728	40912	33433	32895	33202
633	0	0	33008	32720	40896	33442	32849	33186
634	0	6608	33008	32720	40896	33442	32849	33186
635	0	49248	33008	32680	40912	33456	32892	33257
636	0	52352	33008	32680	40912	33456	32892	33257
637	0	65520	33008	32680	40912	33456	32892	33257
638	0	65520	32988	32720	40952	33430	32863	33191
639	0	65520	32988	32720	40952	33430	32863	33191
640	0	65520	32992	32720	40984	33429	32871	33156
641	0	65520	32992	32720	40984	33429	32871	33156
642	0	65520	32992	32720	40984	33429	32871	33156
643	0	65520	32952	32704	40912	33437	32873	33198
644	0	32112	32952	32704	40912	33437	32873	33198
645	0	52080	32952	32704	40912	33437	32873	33198
646	0	0	33000	32720	40888	33430	32883	33243
647	0	0	33000	32720	40888	33430	32883	33243
648	0	0	33008	32736	41008	33447	32881	33179
649	0	0	33008	32736	41008	33447	32881	33179
650	0	0	33008	32736	41008	33447	32881	33179
651	0	0	32992	32704	40920	33458	32875	33232
652	0	0	32992	32704	40920	33458	32875	33232
653	0	5744	32952	32712	40936	33432	32897	33229
654	0	0	32952	32712	40936	33432	32897	33229
655	0	44176	32952	32712	40936	33432	32897	33229
656	0	65520	32968	32712	40968	33414	32888	33190
657	0	54608	32968	32712	40968	33414	32888	33190
658	0	65520	32992	32712	40928	33429	32872	33204
659	0	65520	32992	32712	40928	33429	32872	33204
660	0	65520	32992	32712	40928	33429	32872	33204
661	0	65520	32980	32748	40864	33443	32877	33210
662	0	65520	32980	32748	40864	33443	32877	33210
663	0	65520	32980	32704	40944	33437	32872	33222
664	0	31392	32980	32704	40944	33437	32872	33222
665	0	28304	32980	32704	40944	33437	32872	33222
666	0	7056	33036	32736	40936	33443	32870	33212
667	0	0	33036	32736	40936	33443	32870	33212
668	0	0	32980	32736	40920	33444	32883	33206
669	0	0	32980	32736	40920	33444	32883	33206
670	0	0	32980	32736	40920	33444	32883	33206
671	0	0	32948	32720	41044	33437	32861	33207
672	0	0	32948	32720	41044	33437	32861	33207
673	0	0	32948	32720	41044	33437	32861	33207
674	0	16784	32992	32776	40856	33455	32870	33217
675	0	45392	32992	32776	40856	33455	32870	33217
676	0	65520	32984	32680	40992	33432	32888	33226
677	0	58032	32984	32680	40992	33432	32888	33226
678	0	65520	32984	32680	40992	33432	32888	33226
679	0	65520	33008	32720	40928	33445	32875	33234
680	0	65520	33008	32720	40928	33445	32875	33234
681	0	65520	32984	32672	40904	33444	32869	33183
682	0	65520	32984	32672	40904	33444	32869	33183
683	0	65520	32984	32672	40904	33444	32869	33183
684	0	55344	32972	32680	40968	33449	32887	33171
685	0	15840	32972	32680	40968	33449	32887	33171
686	0	8816	32972	32720	40880	33452	32882	33234
687	0	0	32972	32720	40880	33452	32882	33234
688	0	0	32972	32720	40880	33452	32882	33234
689	0	0	32964	32736	40944	33444	32870	33180
690	0	0	32964	32736	40944	33444	32870	33180
691	0	0	32964	32688	41008	33456	32872	33185
692	0	0	32964	32688	41008	33456	32872	33185
693	0	0	32964	32688	41008	33456	32872	33185
694	0	0	32992	32736	40872	33434	32918	33177
695	0	53264	32992	32736	40872	33434	32918	33177
696	0	65520	33000	32744	40928	33433	32885	33180
697	0	56224	33000	32744	40928	33433	32885	33180
698	0	65520	33000	32744	40928	33433	32885	33180
699	0	65520	33000	32744	40920	33449	32891	33195
700	0	65520	33000	32744	40920	33449	32891	33195
701	0	65520	33000	32744	40920	33449	32891	33195
702	0	65520	33016	32752	40928	33444	32878	33185
703	0	65520	33016	32752	40928	33444	32878	33185
704	0	57936	33016	32688	40936	33451	32878	33184
705	0	0	33016	32688	40936	33451	32878	33184
706	0	21728	33016	32688	40936	33451	32878	33184
707	0	0	32972	32688	41020	33441	32871	33186
708	0	0	32972	32688	41020	33441	32871	33186
709	0	0	32960	32696	40976	33438	32882	33183
710	0	0	32960	32696	40976	33438	32882	33183
711	0	0	32960	32696	40976	33438	32882	33183
712	0	0	32972	32712	40952	33452	32880	33210
713	0	0	32972	32712	40952	33452	32880	33210
714	0	23136	32992	32768	40880	33445	32889	33198
715	0	36800	32992	32768	40880	33445	32889	33198
716	0	65520	32992	32768	40880	33445	32889	33198
717	0	65520	33016	32704	40960	33446	32863	33165
718	0	65520	33016	32704	40960	33446	32863	33165
719	0	65520	32988	32712	40992	33433	32877	33199
720	0	65520	32988	32712	40992	33433	32877	33199
721	0	65520	32988	32712	40992	33433	32877	33199
722	0	65520	32972	32744	40912	33443	32888	33175
723	0	61776	32972	32744	40912	33443	32888	33175
724	0	48896	32972	32744	40912	33443	32888	33175
725	0	39840	32944	32740	40976	33436	32862	33197
726	0	5712	32944	32740	40976	33436	32862	33197
727	0	0	33020	32712	40984	33444	32859	33203
728	0	0	33020	32712	40984	33444	32859	33203
729	0	0	33020	32712	40984	33444	32859	33203
730	0	0	32992	32720	40952	33429	32879	33243
731	0	0	32992	32720	40952	33429	32879	33243
732	0	0	32972	32704	40968	33455	32883	33200
733	0	0	32972	32704	40968	33455	32883	33200
734	0	28576	32972	32704	40968	33455	32883	33200
735	0	44752	33008	32696	40888	33460	32871	33209
736	0	59184	33008	32696	40888	33460	32871	33209
737	0	65520	32976	32720	40992	33462	32896	33155
738	0	65520	32976	32720	40992	33462	32896	33155
739	0	65520	32976	32720	40992	33462	32896	33155
740	0	65520	33040	32704	40920	33462	32884	33202
741	0	65520	33040	32704	40920	33462	32884	33202
742	0	65520	33012	32736	40960	33446	32866	33255
743	0	64592	33012	32736	40960	33446	32866	33255
744	0	65520	33012	32736	40960	33446	32866	33255
745	0	30176	32952	32720	40928	33449	32871	33181
746	0	0	32952	32720	40928	33449	32871	33181
747	0	13952	32944	32728	40944	33441	32882	33171
748	0	0	32944	32728	40944	33441	32882	33171
749	0	0	32944	32728	40944	33441	32882	33171
750	0	0	32988	32728	40856	33435	32885	33203
751	0	0	32988	32728	40856	33435	32885	33203
752	0	0	32988	32728	40856	33435	32885	33203
753	0	0	32984	32712	40904	33441	32889	33279
754	0	0	32984	32712	40904	33441	32889	33279
755	0	55856	32944	32760	40936	33437	32863	33187
756	0	52528	32944	32760	40936	33437	32863	33187
757	0	65520	32944	32760	40936	33437	32863	33187
758	0	65520	32992	32728	40944	33446	32886	33204
759	0	65520	32992	32728	40944	33446	32886	33204
760	0	65520	33004	32712	40896	33433	32864	33157
761	0	65520	33004	32712	40896	33433	32864	33157
762	0	65520	33004	32712	40896	33433	32864	33157
763	0	65520	33012	32744	40952	33424	32871	33207
764	0	43168	33012	32744	40952	33424	32871	33207
765	0	33040	32952	32704	40952	33435	32867	33211
766	0	0	32952	32704	40952	33435	32867	33211
767	0	16640	32952	32704	40952	33435	32867	33211
768	0	0	32984	32728	40896	33433	32871	33172
769	0	0	32984	32728	40896	33433	32871	33172
770	0	0	32964	32736	40848	33448	32888	33198
771	0	0	32964	32736	40848	33448	32888	33198
772	0	0	32964	32736	40848	33448	32888	33198
773	0	0	33008	32744	40928	33462	32865	33208
774	0	3456	33008	32744	40928	33462	32865	33208
775	0	55728	33008	32744	40928	33462	32865	33208
776	0	62656	33008	32728	41044	33444	32871	33172
777	0	65520	33008	32728	41044	33444	32871	33172
778	0	65520	32980	32712	40864	33428	32862	33199
779	0	65520	32980	32712	40864	33428	32862	33199
780	0	65520	32980	32712	40864	33428	32862	33199
781	0	65520	32992	32744	40912	33462	32873	33190
782	0	65520	32992	32744	40912	33462	32873	33190
783	0	65520	32976	32712	41008	33428	32872	33182
784	0	35888	32976	32712	41008	33428	32872	33182
785	0	43280	32976	32712	41008	33428	32872	33182
786	0	2448	32964	32704	40944	33429	32858	33199
787	0	0	32964	32704	40944	33429	32858	33199
788	0	0	32992	32720	40936	33450	32877	33215
789	0	0	32992	32720	40936	33450	32877	33215
790	0	0	32992	32720	40936	33450	32877	33215
791	0	0	33004	32688	40912	33432	32860	33171
792	0	0	33004	32688	40912	33432	32860	33171
793	0	0	33032	32696	40880	33437	32880	33227
794	0	0	33032	32696	40880	33437	32880	33227
795	0	39488	33032	32696	40880	33437	32880	33227
796	0	65520	32964	32712	40976	33442	32879	33159
797	0	65520	32964	32712	40976	33442	32879	33159
798	0	65520	33000	32712	40888	33438	32853	33229
799	0	65520	33000	32712	40888	33438	32853	33229
800	0	65520	33000	32712	40888	33438	32853	33229
801	0	65520	33016	32696	40952	33433	32899	33211
802	0	65520	33016	32696	40952	33433	32899	33211
803	0	65520	33016	32696	40952	33433	32899	33211
804	0	53424	32992	32736	40960	33473	32887	33180
805	0	11056	32992	32736	40960	33473	32887	33180
806	0	11712	32980	32712	40952	33448	32868	33230
807	0	0	32980	32712	40952	33448	32868	33230
808	0	0	32980	32712	40952	33448	32868	33230
809	0	0	32980	32744	40880	33429	32883	33188
810	0	0	32980	32744	40880	33429	32883	33188
811	0	0	32956	32728	40944	33444	32901	33181
812	0	0	32956	32728	40944	33444	32901	33181
813	0	3472	32956	32728	40944	33444	32901	33181
814	0	17504	32992	32736	40988	33442	32863	33202
815	0	39232	32992	32736	40988	33442	32863	33202
816	0	65520	32980	32664	41016	33415	32898	33170
817	0	57168	32980	32664	41016	33415	32898	33170
818	0	65520	32980	32664	41016	33415	32898	33170
819	0	65520	33000	32696	40928	33439	32893	33170
820	0	65520	33000	32696	40928	33439	32893	33170
821	0	65520	32980	32696	40912	33451	32886	33220
822	0	65520	32980	32696	40912	33451	32886	33220
823	0	65520	32980	32696	40912	33451	32886	33220
824	0	41584	32988	32696	40920	33468	32887	33171
825	0	9632	32988	32696	40920	33468	32887	33171
826	0	12848	32988	32696	40920	33468	32887	33171
827	0	0	32976	32728	41012	33449	32876	33170
828	0	0	32976	32728	41012	33449	32876	33170
829	0	0	32964	32704	40816	33412	32876	33189
830	0	0	32964	32704	40816	33412	32876	33189
831	0	0	32964	32704	40816	33412	32876	33189
832	0	0	33000	32728	40872	33441	32858	33243
833	0	0	33000	32728	40872	33441	32858	33243
834	0	16384	32984	32696	40928	33459	32868	33225
835	0	30800	32984	32696	40928	33459	32868	33225
836	0	65520	32984	32696	40928	33459	32868	33225
837	0	65520	32936	32704	41000	33439	32853	33204
838	0	65520	32936	32704	41000	33439	32853	33204
839	0	65520	32988	32704	40912	33466	32867	33206
840	0	65520	32988	32704	40912	33466	32867	33206
841	0	65520	32988	32704	40912	33466	32867	33206
842	0	65520	32952	32680	40944	33459	32875	33201
843	0	63312	32952	32680	40944	33459	32875	33201
844	0	45296	32992	32736	40944	33450	32873	33234
845	0	0	32992	32736	40944	33450	32873	33234
846	0	14432	32992	32736	40944	33450	32873	33234
847	0	0	32968	32704	40944	33456	32862	33213
848	0	0	32968	32704	40944	33456	32862	33213
849	0	0	33012	32728	40920	33441	32891	33231
850	0	0	33012	32728	40920	33441	32891	33231
851	0	0	33012	32728	40920	33441	32891	33231
852	0	0	32980	32720	40968	33446	32885	33179
853	0	0	32980	32720	40968	33446	32885	33179
854	0	26000	32980	32720	40968	33446	32885	33179
855	0	27664	33020	32720	40992	33430	32879	33159
856	0	65520	33020	32720	40992	33430	32879	33159
857	0	65520	32960	32736	40944	33443	32888	33195
858	0	65520	32960	32736	40944	33443	32888	33195
859	0	65520	32960	32736	40944	33443	32888	33195
860	0	65520	33008	32696	40960	33440	32876	33173
861	0	65520	33008	32696	40960	33440	32876	33173
862	0	65520	33036	32704	40928	33470	32861	33198
863	0	63184	33036	32704	40928	33470	32861	33198
864	0	65520	33036	32704	40928	33470	32861	33198
865	0	27504	32980	32696	40928	33470	32886	33177
866	0	0	32980	32696	40928	33470	32886	33177
867	0	18464	33000	32728	40864	33452	32895	33247
868	0	0	33000	32728	40864	33452	32895	33247
869	0	0	33000	32728	40864	33452	32895	33247
870	0	0	32952	32696	40912	33453	32859	33199
871	0	0	32952	32696	40912	33453	32859	33199
872	0	0	32972	32680	41008	33434	32872	33152
873	0	0	32972	32680	41008	33434	32872	33152
874	0	10064	32972	32680	41008	33434	32872	33152
875	0	55168	32972	32672	40904	33418	32895	33186
876	0	59744	32972	32672	40904	33418	32895	33186
877	0	65520	32972	32672	40904	33418	32895	33186
878	0	65520	32948	32732	40984	33436	32869	33249
879	0	65520	32948	32732	40984	33436	32869	33249
880	0	65520	32948	32728	40872	33452	32869	33198
881	0	65520	32948	32728	40872	33452	32869	33198
882	0	65520	32948	32728	40872	33452	32869	33198
883	0	65520	32972	32720	41000	33459	32866	33192
884	0	50496	32972	32720	41000	33459	32866	33192
885	0	13104	33012	32728	40960	33432	32861	33206
886	0	432	33012	32728	40960	33432	32861	33206
887	0	12096	33012	32728	40960	33432	32861	33206
888	0	0	33012	32756	40880	33453	32867	33227
889	0	0	33012	32756	40880	33453	32867	33227
890	0	0	33000	32720	40904	33457	32863	33184
891	0	0	33000	32720	40904	33457	32863	33184
892	0	0	33000	32720	40904	33457	32863	33184
893	0	0	32952	32696	40968	33436	32869	33206
894	0	5744	32952	32696	40968	33436	32869	33206
895	0	52144	32980	32680	40912	33448	32893	33261
896	0	35616	32980	32680	40912	33448	32893	33261
897	0	65520	32980	32680	40912	33448	32893	33261
898	0	65520	33000	32712	40920	33442	32908	33213
899	0	65520	33000	32712	40920	33442	32908	33213
900	0	65520	32964	32688	40928	33442	32884	33211
901	0	65520	32964	32688	40928	33442	32884	33211
902	0	65520	32964	32688	40928	33442	32884	33211
903	0	65520	33004	32736	40928	33433	32882	33187
904	0	42416	33004	32736	40928	33433	32882	33187
905	0	42368	33004	32736	40928	33433	32882	33187
906	0	2112	32948	32672	41036	33448	32870	33144
907	0	0	32948	32672	41036	33448	32870	33144
908	0	0	32984	32704	40968	33445	32889	33189
909	0	0	32984	32704	40968	33445	32889	33189
910	0	0	32984	32704	40968	33445	32889	33189
911	0	0	32952	32704	40968	33423	32901	33201
912	0	0	32952	32704	40968	33423	32901	33201
913	0	0	32952	32704	40952	33442	32863	33160
914	0	0	32952	32704	40952	33442	32863	33160
915	0	41568	32952	32704	40952	33442	32863	33160
916	0	65520	32952	32704	40848	33448	32877	33183
917	0	62896	32952	32704	40848	33448	32877	33183
918	0	65520	32964	32696	40912	33435	32855	33206
919	0	65520	32964	32696	40912	33435	32855	33206
920	0	65520	32964	32696	40912	33435	32855	33206
921	0	65520	32980	32696	40904	33443	32863	33180
922	0	65520	32980	32696	40904	33443	32863	33180
923	0	65520	33000	32696	40896	33443	32880	33206
924	0	27184	33000	32696	40896	33443	32880	33206
925	0	35312	33000	32696	40896	33443	32880	33206
926	0	2880	33020	32704	40968	33438	32888	33201
927	0	0	33020	32704	40968	33438	32888	33201
928	0	0	33020	32704	40968	33438	32888	33201
929	0	0	33020	32720	40912	33431	32888	33238
930	0	0	33020	32720	40912	33431	32888	33238
931	0	0	33016	32704	40904	33437	32852	33159
932	0	0	33016	32704	40904	33437	32852	33159
933	0	4112	33016	32704	40904	33437	32852	33159
934	0	18160	32984	32744	40968	33457	32868	33175
935	0	37296	32984	32744	40968	33457	32868	33175
936	0	65520	33012	32772	40936	33429	32888	33173
937	0	56368	33012	32772	40936	33429	32888	33173
938	0	65520	33012	32772	40936	33429	32888	33173
939	0	65520	33000	32752	40920	33442	32882	33174
940	0	65520	33000	32752	40920	33442	32882	33174
941	0	65520	33000	32712	40944	33429	32878	33207
942	0	65520	33000	32712	40944	33429	32878	33207
943	0	65520	33000	32712	40944	33429	32878	33207
944	0	53760	32944	32772	40872	33442	32887	33178
945	0	15360	32944	32772	40872	33442	32887	33178
946	0	9856	32924	32720	41000	33438	32889	33183
947	0	0	32924	32720	41000	33438	32889	33183
948	0	0	32924	32720	41000	33438	32889	33183
949	0	0	32992	32704	40896	33446	32885	33209
950	0	0	32992	32704	40896	33446	32885	33209
951	0	0	32972	32696	41020	33443	32864	33149
952	0	0	32972	32696	41020	33443	32864	33149
953	0	0	32972	32696	41020	33443	32864	33149
954	0	15376	32984	32680	40936	33426	32878	33196
955	0	36304	32984	32680	40936	33426	32878	33196
956	0	65520	32984	32680	40936	33426	32878	33196
957	0	65520	33000	32744	40896	33446	32883	33160
958	0	65520	33000	32744	40896	33446	32883	33160
959	0	65520	32988	32704	40928	33461	32868	33186
960	0	65520	32988	32704	40928	33461	32868	33186
961	0	65520	32988	32704	40928	33461	32868	33186
962	0	65520	32980	32672	40912	33446	32882	33192
963	0	65520	32980	32672	40912	33446	32882	33192
964	0	59664	32988	32696	40912	33435	32903	33253
965	0	6384	32988	32696	40912	33435	32903	33253
966	0	8768	32988	32696	40912	33435	32903	33253
967	0	4528	32924	32736	40928	33444	32867	33209
968	0	0	32924	32736	40928	33444	32867	33209
969	0	0	33020	32744	40928	33460	32874	33184
970	0	0	33020	32744	40928	33460	32874	33184
971	0	0	33020	32744	40928	33460	32874	33184
972	0	0	32960	32728	40952	33447	32881	33202
973	0	0	32960	32728	40952	33447	32881	33202
974	0	22368	32968	32712	40952	33447	32865	33246
975	0	36800	32968	32712	40952	33447	32865	33246
976	0	65520	32968	32712	40952	33447	32865	33246
977	0	65520	32984	32752	40936	33432	32878	33204
978	0	65520	32984	32752	40936	33432	32878	33204
979	0	65520	32984	32752	40936	33432	32878	33204
980	0	65520	32960	32772	40960	33417	32873	33219
981	0	65520	32960	32772	40960	33417	32873	33219
982	0	65520	32992	32720	40880	33416	32872	33221
983	0	61664	32992	32720	40880	33416	32872	33221
984	0	65520	32992	32720	40880	33416	32872	33221
985	0	27296	33008	32720	40880	33437	32887	33272
986	0	0	33008	32720	40880	33437	32887	33272
987	0	2944	32964	32760	40912	33437	32893	33249
988	0	0	32964	32760	40912	33437	32893	33249
989	0	0	32964	32760	40912	33437	32893	33249
990	0	0	32920	32744	40912	33441	32885	33216
991	0	0	32920	32744	40912	33441	32885	33216
992	0	0	33008	32704	40920	33433	32891	33193
993	0	0	33008	32704	40920	33433	32891	33193
994	0	27456	33008	32704	40920	33433	32891	33193
995	0	40112	33000	32664	41036	33458	32888	33194
996	0	59040	33000	32664	41036	33458	32888	33194
997	0	65520	32952	32704	40968	33446	32885	33188
998	0	65520	32952	32704	40968	33446	32885	33188
999	0	65520	32952	32704	40968	33446	32885	33188
1000	0	65520	32980	32696	40880	33421	32880	33224
1001	0	65520	32980	32696	40880	33421	32880	33224
1002	0	65520	33000	32696	40944	33446	32875	33221
1003	0	54208	33000	32696	40944	33446	32875	33221
1004	0	58208	33000	32696	40944	33446	32875	33221
1005	0	30592	32992	32704	40968	33437	32875	33205
1006	0	0	32992	32704	40968	33437	32875	33205
1007	0	14304	32992	32704	40968	33437	32875	33205
1008	0	0	33000	32696	40880	33438	32881	33233
1009	0	0	33000	32696	40880	33438	32881	33233
1010	0	0	32988	32704	40904	33444	32898	33230
1011	0	0	32988	32704	40904	33444	32898	33230
1012	0	0	32988	32704	40904	33444	32898	33230
1013	0	0	32996	32704	40936	33451	32866	33185
1014	0	6496	32996	32704	40936	33451	32866	33185
1015	0	31264	32992	32728	40928	33439	32848	33172
1016	0	59408	32992	32728	40928	33439	32848	33172
1017	0	65520	32992	32728	40928	33439	32848	33172
1018	0	65520	33000	32712	40984	33438	32875	33222
1019	0	65520	33000	32712	40984	33438	32875	33222
1020	0	65520	33040	32764	40952	33431	32873	33267
1021	0	65520	33040	32764	40952	33431	32873	33267
1022	0	65520	33040	32764	40952	33431	32873	33267
1023	0	65520	33000	32728	40928	33441	32880	33205
1024	0	37488	33000	32728	40928	33441	32880	33205
1025	0	39520	32980	32736	40944	33445	32879	33225
1026	0	0	32980	32736	40944	33445	32879	33225
1027	0	14432	32980	32736	40944	33445	32879	33225
1028	0	0	33004	32728	40904	33457	32856	33204
1029	0	0	33004	32728	40904	33457	32856	33204
1030	0	0	33004	32728	40904	33457	32856	33204
1031	0	0	32944	32728	40976	33447	32862	33228
1032	0	0	32944	32728	40976	33447	32862	33228
1033	0	0	32956	32704	40880	33445	32874	33229
1034	0	9856	32956	32704	40880	33445	32874	33229
1035	0	38992	32956	32704	40880	33445	32874	33229
1036	0	65520	32932	32712	41032	33447	32876	33170
1037	0	65520	32932	32712	41032	33447	32876	33170
1038	0	65520	32968	32728	40992	33425	32875	33162
1039	0	65520	32968	32728	40992	33425	32875	33162
1040	0	65520	32968	32728	40992	33425	32875	33162
1041	0	65520	32944	32712	40976	33439	32878	33174
1042	0	65520	32944	32712	40976	33439	32878	33174
1043	0	65520	32988	32736	40896	33442	32868	33184
1044	0	22288	32988	32736	40896	33442	32868	33184
1045	0	56544	32988	32736	40896	33442	32868	33184
1046	0	3936	32964	32720	40912	33439	32867	33195
1047	0	0	32964	32720	40912	33439	32867	33195
1048	0	0	32976	32720	40896	33449	32890	33184
1049	0	0	32976	32720	40896	33449	32890	33184
1050	0	0	32976	32720	40896	33449	32890	33184
1051	0	0	32984	32712	40888	33460	32878	33205
1052	0	0	32984	32712	40888	33460	32878	33205
1053	0	0	33000	32696	40888	33454	32896	33226
1054	0	0	33000	32696	40888	33454	32896	33226
1055	0	48464	33000	32696	40888	33454	32896	33226
1056	0	65520	32960	32736	40952	33441	32884	33194
1057	0	65520	32960	32736	40952	33441	32884	33194
1058	0	65520	32960	32736	40952	33441	32884	33194
1059	0	65520	32952	32704	40944	33442	32876	33191
1060	0	65520	32952	32704	40944	33442	32876	33191
1061	0	65520	33000	32704	40952	33448	32888	33169
1062	0	65520	33000	32704	40952	33448	32888	33169
1063	0	65520	33000	32704	40952	33448	32888	33169
1064	0	54432	32964	32732	40928	33451	32896	33186
1065	0	21904	32964	32732	40928	33451	32896	33186
1066	0	8816	32952	32704	40896	33464	32891	33242
1067	0	0	32952	32704	40896	33464	32891	33242
1068	0	0	32952	32704	40896	33464	32891	33242
1069	0	0	32980	32748	40904	33455	32891	33200
1070	0	0	32980	32748	40904	33455	32891	33200
1071	0	0	32956	32664	40920	33446	32897	33241
1072	0	0	32956	32664	40920	33446	32897	33241
1073	0	1072	32956	32664	40920	33446	32897	33241
1074	0	13920	33000	32704	40920	33435	32886	33198
1075	0	26480	33000	32704	40920	33435	32886	33198
1076	0	65520	32992	32744	40968	33455	32855	33186
1077	0	62656	32992	32744	40968	33455	32855	33186
1078	0	65520	32992	32744	40968	33455	32855	33186
1079	0	65520	32964	32704	40960	33443	32881	33198
1080	0	65520	32964	32704	40960	33443	32881	33198
1081	0	65520	32976	32736	40912	33442	32880	33194
1082	0	54128	32976	32736	40912	33442	32880	33194
1083	0	65520	32976	32736	40912	33442	32880	33194
1084	0	65520	32960	32756	40872	33446	32882	33206
1085	0	0	32960	32756	40872	33446	32882	33206
1086	0	14416	32960	32756	40872	33446	32882	33206
1087	0	0	33032	32720	40896	33457	32874	33255
1088	0	0	33032	32720	40896	33457	32874	33255
1089	0	0	32992	32720	40888	33458	32900	33216
1090	0	0	32992	32720	40888	33458	32900	33216
1091	0	0	32992	32720	40888	33458	32900	33216
1092	0	0	33008	32720	40928	33407	32884	33208
1093	0	0	33008	32720	40928	33407	32884	33208
1094	0	14208	32988	32728	40920	33429	32875	33225
1095	0	32336	32988	32728	40920	33429	32875	33225
1096	0	65520	32988	32728	40920	33429	32875	33225
1097	0	65520	33000	32704	40944	33432	32869	33179
1098	0	65520	33000	32704	40944	33432	32869	33179
1099	0	65520	33008	32704	40984	33427	32870	33179
1100	0	65520	33008	32704	40984	33427	32870	33179
1101	0	65520	33008	32704	40984	33427	32870	33179
1102	0	65520	32976	32688	40864	33453	32871	33174
1103	0	65520	32976	32688	40864	33453	32871	33174
1104	0	57904	32964	32756	40968	33433	32880	33229
1105	0	0	32964	32756	40968	33433	32880	33229
1106	0	12016	32964	32756	40968	33433	32880	33229
1107	0	336	33020	32712	40920	33439	32868	33197
1108	0	0	33020	32712	40920	33439	32868	33197
1109	0	0	33020	32712	40920	33439	32868	33197
1110	0	0	32972	32704	40936	33421	32899	33205
1111	0	0	32972	32704	40936	33421	32899	33205
1112	0	0	33012	32704	40880	33419	32887	33196
1113	0	0	33012	32704	40880	33419	32887	33196
1114	0	25184	33012	32704	40880	33419	32887	33196
1115	0	34288	33028	32680	40912	33448	32902	33222
1116	0	65264	33028	32680	40912	33448	32902	33222
1117	0	65520	33016	32736	40920	33447	32896	33223
1118	0	65520	33016	32736	40920	33447	32896	33223
1119	0	65520	33016	32736	40920	33447	32896	33223
1120	0	65520	32976	32712	41020	33437	32884	33201
1121	0	65520	32976	32712	41020	33437	32884	33201
1122	0	65520	33020	32720	40848	33443	32891	33240
1123	0	61888	33020	32720	40848	33443	32891	33240
1124	0	65520	33020	32720	40848	33443	32891	33240
1125	0	6976	32936	32720	40904	33455	32872	33211
1126	0	4528	32936	32720	40904	33455	32872	33211
1127	0	9040	32932	32728	40960	33451	32875	33200
1128	0	0	32932	32728	40960	33451	32875	33200
1129	0	0	32932	32728	40960	33451	32875	33200
1130	0	0	33000	32704	41028	33443	32839	33159
1131	0	0	33000	32704	41028	33443	32839	33159
1132	0	0	32972	32704	40960	33459	32879	33179
1133	0	0	32972	32704	40960	33459	32879	33179
1134	0	34768	32972	32704	40960	33459	32879	33179
1135	0	44432	32956	32712	40936	33449	32861	33172
1136	0	56128	32956	32712	40936	33449	32861	33172
1137	0	65520	32956	32712	40936	33449	32861	33172
1138	0	65520	32956	32688	40936	33317	32892	33172
1139	0	65520	32956	32688	40936	33317	32892	33172
1140	0	65520	32936	32744	40920	33414	32891	33218
1141	0	65520	32936	32744	40920	33414	32891	33218
1142	0	65520	32936	32744	40920	33414	32891	33218
1143	0	65520	32952	32728	40952	33443	32880	33214
1144	0	40816	32952	32728	40952	33443	32880	33214
1145	0	21872	33004	32704	40944	33444	32882	33211
1146	0	0	33004	32704	40944	33444	32882	33211
1147	0	14320	33004	32704	40944	33444	32882	33211
1148	0	0	32992	32728	40936	33447	32884	33192
1149	0	0	32992	32728	40936	33447	32884	33192
1150	0	0	32940	32656	40912	33448	32880	33187
1151	0	0	32940	32656	40912	33448	32880	33187
1152	0	0	32940	32656	40912	33448	32880	33187
1153	0	0	33008	32736	40896	33459	32874	33183
1154	0	7184	33008	32736	40896	33459	32874	33183
1155	0	53264	33012	32696	40952	33425	32898	33232
1156	0	47456	33012	32696	40952	33425	32898	33232
1157	0	65520	33012	32696	40952	33425	32898	33232
1158	0	65520	32980	32704	40952	33458	32877	33179
1159	0	65520	32980	32704	40952	33458	32877	33179
1160	0	65520	32980	32704	40952	33458	32877	33179
1161	0	65520	32988	32696	40904	33434	32874	33235
1162	0	65520	32988	32696	40904	33434	32874	33235
1163	0	65520	32980	32704	40944	33449	32650	33172
1164	0	36800	32980	32704	40944	33449	32650	33172
1165	0	40096	32980	32704	40944	33449	32650	33172
1166	0	1200	32960	32736	40936	33451	32846	33226
1167	0	0	32960	32736	40936	33451	32846	33226
1168	0	0	32936	32752	40968	33433	32866	33151
1169	0	0	32936	32752	40968	33433	32866	33151
1170	0	0	32936	32752	40968	33433	32866	33151
1171	0	0	32952	32656	40976	33437	32866	33164
1172	0	0	32952	32656	40976	33437	32866	33164
1173	0	0	32988	32688	40888	33466	32855	33191
1174	0	0	32988	32688	40888	33466	32855	33191
1175	0	41488	32988	32688	40888	33466	32855	33191
1176	0	65520	33000	32744	40856	33455	32859	33242
1177	0	65184	33000	32744	40856	33455	32859	33242
1178	0	65520	33000	32720	40896	33453	32865	33181
1179	0	65520	33000	32720	40896	33453	32865	33181
1180	0	65520	33000	32720	40896	33453	32865	33181
1181	0	65520	32984	32756	40984	33456	32890	33204
1182	0	65520	32984	32756	40984	33456	32890	33204
1183	0	65520	33016	32688	40904	33436	32878	33252
1184	0	30400	33016	32688	40904	33436	32878	33252
1185	0	30064	33016	32688	40904	33436	32878	33252
1186	0	3152	32988	32712	40888	33449	32861	33203
1187	0	0	32988	32712	40888	33449	32861	33203
1188	0	0	32988	32712	40888	33449	32861	33203
1189	0	0	33000	32704	40912	33441	32887	33193
1190	0	0	33000	32704	40912	33441	32887	33193
1191	0	0	32984	32764	40920	33445	32898	33239
1192	0	0	32984	32764	40920	33445	32898	33239
1193	0	0	32984	32764	40920	33445	32898	33239
1194	0	7984	32944	32736	40912	33450	32877	33187
1195	0	28800	32944	32736	40912	33450	32877	33187
1196	0	65520	33016	32712	40968	33440	32869	33157
1197	0	53776	33016	32712	40968	33440	32869	33157
1198	0	65520	33016	32712	40968	33440	32869	33157
1199	0	65520	33008	32752	40904	33448	32883	33187
1200	0	65520	33008	32752	40904	33448	32883	33187
1201	0	65520	32952	32696	40936	33448	32889	33236
1202	0	65520	32952	32696	40936	33448	32889	33236
1203	0	65520	32952	32696	40936	33448	32889	33236
1204	0	55216	33004	32704	40912	33458	32869	33203
1205	0	3952	33004	32704	40912	33458	32869	33203
1206	0	11136	33000	32688	40864	33446	32861	33190
1207	0	0	33000	32688	40864	33446	32861	33190
1208	0	0	33000	32688	40864	33446	32861	33190
1209	0	0	32992	32712	40968	33455	32866	33177
1210	0	0	32992	32712	40968	33455	32866	33177
1211	0	0	32936	32764	40888	33439	32889	33231
1212	0	0	32936	32764	40888	33439	32889	33231
1213	0	0	32936	32764	40888	33439	32889	33231
1214	0	8192	32996	32704	40992	33435	32867	33255
1215	0	44768	32996	32704	40992	33435	32867	33255
1216	0	65520	32996	32704	40992	33435	32867	33255
1217	0	65520	33008	32680	40928	33447	32878	33197
1218	0	65520	33008	32680	40928	33447	32878	33197
1219	0	65520	33012	32748	40912	33433	32859	33211
1220	0	65520	33012	32748	40912	33433	32859	33211
1221	0	65520	33012	32748	40912	33433	32859	33211
1222	0	65520	33000	32680	40936	33442	32902	33191
1223	0	65520	33000	32680	40936	33442	32902	33191
1224	0	52368	32960	32712	40976	33421	32872	33226
1225	0	0	32960	32712	40976	33421	32872	33226
1226	0	29488	32960	32712	40976	33421	32872	33226
1227	0	0	32976	32736	41000	33421	32861	33198
1228	0	0	32976	32736	41000	33421	32861	33198
1229	0	0	32968	32712	40976	33441	32877	33169
1230	0	0	32968	32712	40976	33441	32877	33169
1231	0	0	32968	32712	40976	33441	32877	33169
1232	0	0	32964	32736	40976	33438	32862	33192
1233	0	0	32964	32736	40976	33438	32862	33192
1234	0	35696	32956	32720	40928	33437	32875	33184
1235	0	33760	32956	32720	40928	33437	32875	33184
1236	0	65520	32956	32720	40928	33437	32875	33184
1237	0	65520	33020	32712	40928	33443	32888	33182
1238	0	65520	33020	32712	40928	33443	32888	33182
1239	0	65520	33020	32712	40928	33443	32888	33182
1240	0	65520	33012	32704	40928	33443	32879	33248
1241	0	65520	33012	32704	40928	33443	32879	33248
1242	0	65520	32952	32744	40848	33434	32883	33239
1243	0	61888	32952	32744	40848	33434	32883	33239
1244	0	56592	32952	32744	40848	33434	32883	33239
1245	0	21488	32952	32720	40968	33428	32871	33192
1246	0	0	32952	32720	40968	33428	32871	33192
1247	0	3776	32952	32736	40936	33436	32885	33209
1248	0	0	32952	32736	40936	33436	32885	33209
1249	0	0	32952	32736	40936	33436	32885	33209
1250	0	0	32992	32760	40872	33484	32879	33187
1251	0	0	32992	32760	40872	33484	32879	33187
1252	0	0	32984	32736	40896	33439	32896	33258
1253	0	0	32984	32736	40896	33439	32896	33258
1254	0	27904	32984	32736	40896	33439	32896	33258
1255	0	47120	32952	32680	40920	33425	32877	33199
1256	0	60720	32952	32680	40920	33425	32877	33199
1257	0	65520	33020	32704	40872	33447	32882	33258
1258	0	65520	33020	32704	40872	33447	32882	33258
1259	0	65520	33020	32704	40872	33447	32882	33258
1260	0	65520	32992	32704	40880	33412	32886	33210
1261	0	65520	32992	32704	40880	33412	32886	33210
1262	0	65520	32980	32752	40960	33431	32875	33216
1263	0	51120	32980	32752	40960	33431	32875	33216
1264	0	52784	32980	32752	40960	33431	32875	33216
1265	0	24512	32992	32696	40976	33420	32864	33199
1266	0	0	32992	32696	40976	33420	32864	33199
1267	0	14864	32992	32696	40976	33420	32864	33199
1268	0	0	32976	32728	40928	33440	32892	33196
1269	0	0	32976	32728	40928	33440	32892	33196
1270	0	0	32988	32712	40864	33430	32882	33239
1271	0	0	32988	32712	40864	33430	32882	33239
1272	0	0	32988	32712	40864	33430	32882	33239
1273	0	0	32992	32704	40936	33457	32868	33222
1274	0	7328	32992	32704	40936	33457	32868	33222
1275	0	50768	32988	32704	41000	33425	32889	33203
1276	0	34528	32988	32704	41000	33425	32889	33203
1277	0	65520	32988	32704	41000	33425	32889	33203
1278	0	65520	32972	32696	40904	33420	32876	33188
1279	0	65520	32972	32696	40904	33420	32876	33188
1280	0	65520	32956	32712	40928	33436	32868	33243
1281	0	65520	32956	32712	40928	33436	32868	33243
1282	0	65520	32956	32712	40928	33436	32868	33243
1283	0	65520	32964	32712	40912	33455	32884	33214
1284	0	53824	32964	32712	40912	33455	32884	33214
1285	0	35024	32964	32704	40912	33439	32860	33185
1286	0	0	32964	32704	40912	33439	32860	33185
1287	0	8080	32964	32704	40912	33439	32860	33185
1288	0	0	32948	32744	40920	33449	32873	33174
1289	0	0	32948	32744	40920	33449	32873	33174
1290	0	0	32948	32744	40920	33449	32873	33174
1291	0	0	32952	32720	40888	33444	32862	33207
1292	0	0	32952	32720	40888	33444	32862	33207
1293	0	0	32952	32712	40952	33427	32840	33176
1294	0	16528	32952	32712	40952	33427	32840	33176
1295	0	55024	32952	32712	40952	33427	32840	33176
1296	0	50304	32980	32720	40888	33434	32876	33201
1297	0	65520	32980	32720	40888	33434	32876	33201
1298	0	65520	32952	32680	40936	33444	32873	33211
1299	0	65520	32952	32680	40936	33444	32873	33211
1300	0	65520	32952	32680	40936	33444	32873	33211
1301	0	65520	32976	32696	40904	33440	32884	33192
1302	0	65520	32976	32696	40904	33440	32884	33192
1303	0	65520	33008	32688	40880	33446	32884	33221
1304	0	30976	33008	32688	40880	33446	32884	33221
1305	0	35440	33008	32688	40880	33446	32884	33221
1306	0	2096	33000	32728	40904	33437	32888	33161
1307	0	0	33000	32728	40904	33437	32888	33161
1308	0	0	32988	32696	40920	33422	32877	33183
1309	0	0	32988	32696	40920	33422	32877	33183
1310	0	0	32988	32696	40920	33422	32877	33183
1311	0	0	32980	32728	40928	33460	32874	33194
1312	0	0	32980	32728	40928	33460	32874	33194
1313	0	0	32988	32712	40960	33453	32877	33177
1314	0	4608	32988	32712	40960	33453	32877	33177
1315	0	49728	32988	32712	40960	33453	32877	33177
1316	0	65520	33008	32728	40960	33457	32878	33180
1317	0	65520	33008	32728	40960	33457	32878	33180
1318	0	65520	33008	32728	40960	33457	32878	33180
1319	0	65520	32976	32688	40936	33439	32890	33255
1320	0	65520	32976	32688	40936	33439	32890	33255
1321	0	65520	33020	32688	41000	33474	32868	33191
1322	0	65520	33020	32688	41000	33474	32868	33191
1323	0	65520	33020	32688	41000	33474	32868	33191
1324	0	47488	32992	32752	40936	33428	32873	33157
1325	0	13184	32992	32752	40936	33428	32873	33157
1326	0	5280	33000	32720	40896	33440	32884	33266
1327	0	0	33000	32720	40896	33440	32884	33266
1328	0	0	33000	32720	40896	33440	32884	33266
1329	0	0	32988	32728	40880	33461	32897	33173
1330	0	0	32988	32728	40880	33461	32897	33173
1331	0	0	32996	32712	41004	33430	32878	33134
1332	0	0	32996	32712	41004	33430	32878	33134
1333	0	0	32996	32712	41004	33430	32878	33134
1334	0	7056	32984	32704	40872	33442	32919	33187
1335	0	44448	32984	32704	40872	33442	32919	33187
1336	0	65520	32972	32704	40968	33424	32897	33193
1337	0	62576	32972	32704	40968	33424	32897	33193
1338	0	65520	32972	32704	40968	33424	32897	33193
1339	0	65520	32988	32720	40944	33432	32870	33175
1340	0	65520	32988	32720	40944	33432	32870	33175
1341	0	65520	32988	32720	40944	33432	32870	33175
1342	0	65520	32992	32736	40920	33446	32899	33178
1343	0	65520	32992	32736	40920	33446	32899	33178
1344	0	45216	32972	32728	40976	33414	32852	33173
1345	0	0	32972	32728	40976	33414	32852	33173
1346	0	17344	32972	32728	40976	33414	32852	33173
1347	0	0	32932	32764	40968	33424	32857	33213
1348	0	0	32932	32764	40968	33424	32857	33213
1349	0	0	32960	32712	40960	33441	32867	33204
1350	0	0	32960	32712	40960	33441	32867	33204
1351	0	0	32960	32712	40960	33441	32867	33204
1352	0	0	32964	32664	40928	33449	32875	33196
1353	0	0	32964	32664	40928	33449	32875	33196
1354	0	12880	33012	32744	40944	33446	32889	33214
1355	0	28704	33012	32744	40944	33446	32889	33214
1356	0	65520	33012	32744	40944	33446	32889	33214
1357	0	65520	33008	32768	40880	33429	32879	33225
1358	0	65520	33008	32768	40880	33429	32879	33225
1359	0	65520	33012	32720	40896	33437	32882	33196
1360	0	65520	33012	32720	40896	33437	32882	33196
1361	0	65520	33012	32720	40896	33437	32882	33196
1362	0	65520	33000	32744	40920	33464	32870	33172
1363	0	65520	33000	32744	40920	33464	32870	33172
1364	0	56832	32996	32696	40856	33442	32875	33221
1365	0	0	32996	32696	40856	33442	32875	33221
1366	0	6720	32996	32696	40856	33442	32875	33221
1367	0	3360	32920	32712	40936	33441	32884	33203
1368	0	0	32920	32712	40936	33441	32884	33203
1369	0	0	32920	32712	40936	33441	32884	33203
1370	0	0	33000	32744	40944	33429	32871	33185
1371	0	0	33000	32744	40944	33429	32871	33185
1372	0	0	32992	32680	40896	33444	32877	33186
1373	0	0	32992	32680	40896	33444	32877	33186
1374	0	22272	32992	32680	40896	33444	32877	33186
1375	0	27760	32972	32688	40904	33455	32892	33196
1376	0	65520	32972	32688	40904	33455	32892	33196
1377	0	65520	32984	32704	40928	33430	32892	33197
1378	0	65520	32984	32704	40928	33430	32892	33197
1379	0	65520	32984	32704	40928	33430	32892	33197
1380	0	65520	33000	32704	40888	33441	32891	33180
1381	0	65520	33000	32704	40888	33441	32891	33180
1382	0	65520	33004	32736	40840	33428	32885	33253
1383	0	65520	33004	32736	40840	33428	32885	33253
1384	0	61120	33004	32736	40840	33428	32885	33253
1385	0	24400	32984	32712	40936	33449	32876	33215
1386	0	0	32984	32712	40936	33449	32876	33215
1387	0	1296	33000	32712	40904	33450	32873	33183
1388	0	0	33000	32712	40904	33450	32873	33183
1389	0	0	33000	32712	40904	33450	32873	33183
1390	0	0	32956	32736	40856	33450	32889	33156
1391	0	0	32956	32736	40856	33450	32889	33156
1392	0	0	32956	32736	40856	33450	32889	33156
1393	0	0	33008	32728	40912	33433	32897	33211
1394	0	8352	33008	32728	40912	33433	32897	33211
1395	0	28800	32972	32672	41000	33425	32862	33191
1396	0	64976	32972	32672	41000	33425	32862	33191
1397	0	65520	32972	32672	41000	33425	32862	33191
1398	0	65520	32992	32672	40904	33468	32861	33190
1399	0	65520	32992	32672	40904	33468	32861	33190
1400	0	65520	33016	32656	40896	33480	32861	33173
1401	0	65520	33016	32656	40896	33480	32861	33173
1402	0	65520	33016	32656	40896	33480	32861	33173
1403	0	65520	32992	32728	40904	33437	32894	33198
1404	0	38400	32992	32728	40904	33437	32894	33198
1405	0	14192	32964	32744	40904	33461	32891	33235
1406	0	0	32964	32744	40904	33461	32891	33235
1407	0	15136	32964	32744	40904	33461	32891	33235
1408	0	0	32980	32720	40920	33475	32878	33194
1409	0	0	32980	32720	40920	33475	32878	33194
1410	0	0	32976	32744	40992	33449	32858	33136
1411	0	0	32976	32744	40992	33449	32858	33136
1412	0	0	32976	32744	40992	33449	32858	33136
1413	0	0	32992	32760	40968	33444	32862	33203
1414	0	13040	32992	32760	40968	33444	32862	33203
1415	0	52320	33008	32712	40920	33432	32869	33179
1416	0	41648	33008	32712	40920	33432	32869	33179
1417	0	65520	33008	32712	40920	33432	32869	33179
1418	0	65520	32988	32704	40896	33425	32872	33220
1419	0	65520	32988	32704	40896	33425	32872	33220
1420	0	65520	32988	32704	40896	33425	32872	33220
1421	0	65520	32992	32736	41012	33456	32873	33198
1422	0	65520	32992	32736	41012	33456	32873	33198
1423	0	65520	32980	32688	40896	33474	32866	33207
1424	0	27664	32980	32688	40896	33474	32866	33207
1425	0	53296	32980	32688	40896	33474	32866	33207
1426	0	0	32996	32656	40912	33454	32861	33182
1427	0	0	32996	32656	40912	33454	32861	33182
1428	0	0	32964	32712	40936	33443	32887	33243
1429	0	0	32964	32712	40936	33443	32887	33243
1430	0	0	32964	32712	40936	33443	32887	33243
1431	0	0	33020	32688	40976	33461	32859	33219
1432	0	0	33020	32688	40976	33461	32859	33219
1433	0	0	32976	32756	40912	33453	32879	33222
1434	0	0	32976	32756	40912	33453	32879	33222
1435	0	55344	32976	32756	40912	33453	32879	33222
1436	0	65520	32992	32672	40920	33441	32875	33191
1437	0	65520	32992	32672	40920	33441	32875	33191
1438	0	65520	32984	32748	40952	33439	32849	33203
1439	0	65520	32984	32748	40952	33439	32849	33203
1440	0	65520	32984	32748	40952	33439	32849	33203
1441	0	65520	33004	32704	40904	33458	32875	33204
1442	0	65520	33004	32704	40904	33458	32875	33204
1443	0	65520	33004	32704	40904	33458	32875	33204
1444	0	50528	32928	32704	40944	33439	32872	33206
1445	0	24144	32928	32704	40944	33439	32872	33206
1446	0	0	32956	32720	40888	33470	32868	33163
1447	0	0	32956	32720	40888	33470	32868	33163
1448	0	0	32956	32720	40888	33470	32868	33163
1449	0	0	32924	32736	40968	33443	32869	33151
1450	0	0	32924	32736	40968	33443	32869	33151
1451	0	0	32980	32736	40952	33442	32867	33220
1452	0	0	32980	32736	40952	33442	32867	33220
1453	0	3136	32980	32736	40952	33442	32867	33220
1454	0	6144	32972	32680	40952	33446	32869	33202
1455	0	26064	32972	32680	40952	33446	32869	33202
1456	0	65520	33004	32712	40920	33435	32877	33169
1457	0	59184	33004	32712	40920	33435	32877	33169
1458	0	65520	33004	32712	40920	33435	32877	33169
1459	0	65520	32996	32680	40896	33435	32884	33174
1460	0	65520	32996	32680	40896	33435	32884	33174
1461	0	65520	32968	32648	40928	33439	32903	33205
1462	0	65520	32968	32648	40928	33439	32903	33205
1463	0	65520	32968	32648	40928	33439	32903	33205
1464	0	50096	33000	32728	40904	33453	32854	33188
1465	0	0	33000	32728	40904	33453	32854	33188
1466	0	12736	32932	32728	40952	33442	32871	33186
1467	0	0	32932	32728	40952	33442	32871	33186
1468	0	0	32932	32728	40952	33442	32871	33186
1469	0	0	32976	32696	40896	33432	32870	33212
1470	0	0	32976	32696	40896	33432	32870	33212
1471	0	0	32976	32696	40896	33432	32870	33212
1472	0	0	32936	32712	40920	33430	32876	33173
1473	0	0	32936	32712	40920	33430	32876	33173
1474	0	8976	32932	32696	40904	33455	32883	33185
1475	0	17056	32932	32696	40904	33455	32883	33185
1476	0	65520	32932	32696	40904	33455	32883	33185
1477	0	65520	32988	32744	40944	33459	32886	33193
1478	0	65520	32988	32744	40944	33459	32886	33193
1479	0	65520	32992	32736	40952	33433	32861	33187
1480	0	65520	32992	32736	40952	33433	32861	33187
1481	0	65520	32992	32736	40952	33433	32861	33187
1482	0	65520	32984	32744	40984	33433	32876	33182
1483	0	65520	32984	32744	40984	33433	32876	33182
1484	0	55056	32980	32696	40944	33448	32868	33216
1485	0	0	32980	32696	40944	33448	32868	33216
1486	0	3248	32980	32696	40944	33448	32868	33216
1487	0	3296	32972	32696	40928	33450	32875	33191
1488	0	0	32972	32696	40928	33450	32875	33191
1489	0	0	32992	32720	40896	33429	32879	33225
1490	0	0	32992	32720	40896	33429	32879	33225
1491	0	0	32992	32720	40896	33429	32879	33225
1492	0	0	33000	32728	40904	33436	32891	33196
1493	0	0	33000	32728	40904	33436	32891	33196
1494	0	26576	33000	32728	40904	33436	32891	33196
1495	0	40720	32988	32712	40960	33445	32869	33168
1496	0	65520	32988	32712	40960	33445	32869	33168
1497	0	60352	32996	32696	40944	33440	32885	33194
1498	0	65520	32996	32696	40944	33440	32885	33194
1499	0	65520	32996	32696	40944	33440	32885	33194
1500	0	65520	32980	32704	40872	33453	32880	33196
1501	0	65520	32980	32704	40872	33453	32880	33196
1502	0	65520	33020	32688	40952	33448	32877	33168
1503	0	62048	33020	32688	40952	33448	32877	33168
1504	0	59408	33020	32688	40952	33448	32877	33168
1505	0	13648	33000	32688	40952	33448	32890	33158
1506	0	752	33000	32688	40952	33448	32890	33158
1507	0	8368	33000	32740	40928	32707	32886	33201
1508	0	0	33000	32740	40928	32707	32886	33201
1509	0	0	33000	32740	40928	32707	32886	33201
1510	0	0	32992	32664	40928	33381	32871	33188
1511	0	0	32992	32664	40928	33381	32871	33188
1512	0	0	32988	32672	40896	33449	32882	33185
1513	0	0	32988	32672	40896	33449	32882	33185
1514	0	14736	32988	32672	40896	33449	32882	33185
1515	0	41344	32984	32704	40936	33444	32876	33220
1516	0	55296	32984	32704	40936	33444	32876	33220
1517	0	65520	32984	32704	40936	33444	32876	33220
1518	0	65520	32972	32688	40944	33425	32900	33269
1519	0	65520	32972	32688	40944	33425	32900	33269
1520	0	65520	32916	32680	40896	33436	32886	33222
1521	0	65520	32916	32680	40896	33436	32886	33222
1522	0	65520	32916	32680	40896	33436	32886	33222
1523	0	65520	32988	32736	40912	33445	32885	33229
1524	0	45680	32988	32736	40912	33445	32885	33229
1525	0	27408	32980	32744	40928	33437	32880	33205
1526	0	0	32980	32744	40928	33437	32880	33205
1527	0	18992	32980	32744	40928	33437	32880	33205
1528	0	0	33000	32712	40928	33441	32875	33204
1529	0	0	33000	32712	40928	33441	32875	33204
1530	0	0	32908	32728	40928	33456	32885	33174
1531	0	0	32908	32728	40928	33456	32885	33174
1532	0	0	32908	32728	40928	33456	32885	33174
1533	0	0	32980	32720	40944	33434	32880	33185
1534	0	12304	32980	32720	40944	33434	32880	33185
1535	0	49312	32928	32704	40912	33435	32870	33150
1536	0	46800	32928	32704	40912	33435	32870	33150
1537	0	65520	32928	32704	40912	33435	32870	33150
1538	0	65520	32992	32680	40920	33451	32863	33150
1539	0	65520	32992	32680	40920	33451	32863	33150
1540	0	65520	32960	32712	40960	33452	32857	33193
1541	0	65520	32960	32712	40960	33452	32857	33193
1542	0	65520	32960	32712	40960	33452	32857	33193
1543	0	65520	33008	32704	40952	33443	32861	33196
1544	0	40000	33008	32704	40952	33443	32861	33196
1545	0	24384	33008	32704	40952	33443	32861	33196
1546	0	19968	33004	32712	40960	33423	32858	33195
1547	0	6224	33004	32712	40960	33423	32858	33195
1548	0	0	32988	32736	40928	33421	32872	33173
1549	0	0	32988	32736	40928	33421	32872	33173
1550	0	0	32988	32736	40928	33421	32872	33173
1551	0	0	32980	32704	40944	33441	32859	33192
1552	0	0	32980	32704	40944	33441	32859	33192
1553	0	0	32944	32704	40968	33457	32872	33178
1554	0	0	32944	32704	40968	33457	32872	33178
1555	0	52944	32944	32704	40968	33457	32872	33178
1556	0	58944	32952	32728	40912	33446	32883	33198
1557	0	65520	32952	32728	40912	33446	32883	33198
1558	0	65520	32896	32704	40936	33449	32869	33258
1559	0	65520	32896	32704	40936	33449	32869	33258
1560	0	65520	32896	32704	40936	33449	32869	33258
1561	0	65520	33008	32656	40912	33434	32889	33215
1562	0	65520	33008	32656	40912	33434	32889	33215
1563	0	65520	33000	32720	40912	33469	32883	33235
1564	0	34256	33000	32720	40912	33469	32883	33235
1565	0	31392	33000	32720	40912	33469	32883	33235
1566	0	3152	32984	32756	40968	33435	32891	33194
1567	0	0	32984	32756	40968	33435	32891	33194
1568	0	0	32988	32696	40984	33425	32875	33203
1569	0	0	32988	32696	40984	33425	32875	33203
1570	0	0	32988	32696	40984	33425	32875	33203
1571	0	0	32996	32712	40896	33448	32897	33182
1572	0	0	32996	32712	40896	33448	32897	33182
1573	0	3200	32996	32712	40896	33448	32897	33182
1574	0	5744	32996	32704	41000	33436	32858	33188
1575	0	35216	32996	32704	41000	33436	32858	33188
1576	0	61152	32996	32712	40944	33450	32900	33220
1577	0	55936	32996	32712	40944	33450	32900	33220
1578	0	65520	32996	32712	40944	33450	32900	33220
1579	0	65520	32976	32712	40968	33441	32882	33220
1580	0	65520	32976	32712	40968	33441	32882	33220
1581	0	65520	33008	32728	40872	33429	32864	33233
1582	0	65520	33008	32728	40872	33429	32864	33233
1583	0	65520	33008	32728	40872	33429	32864	33233
1584	0	59264	32964	32712	41004	33435	32888	33192
1585	0	4848	32964	32712	41004	33435	32888	33192
1586	0	10304	32972	32728	40952	33431	32897	33236
1587	0	0	32972	32728	40952	33431	32897	33236
1588	0	0	32972	32728	40952	33431	32897	33236
1589	0	0	32984	32728	41000	33450	32873	33198
1590	0	0	32984	32728	41000	33450	32873	33198
1591	0	0	33024	32664	40968	33431	32871	33239
1592	0	0	33024	32664	40968	33431	32871	33239
1593	0	0	33024	32664	40968	33431	32871	33239
1594	0	3280	33024	32736	40936	33460	32893	33202
1595	0	43056	33024	32736	40936	33460	32893	33202
1596	0	65520	33024	32736	40936	33460	32893	33202
1597	0	65520	32980	32712	40920	33423	32867	33234
1598	0	65520	32980	32712	40920	33423	32867	33234
1599	0	65520	33012	32696	40928	33436	32881	33214
1600	0	65520	33012	32696	40928	33436	32881	33214
1601	0	65520	33012	32696	40928	33436	32881	33214
1602	0	65520	32992	32744	41024	33440	32866	33204
1603	0	65520	32992	32744	41024	33440	32866	33204
1604	0	51840	33000	32736	40896	33423	32885	33230
1605	0	0	33000	32736	40896	33423	32885	33230
1606	0	23584	33000	32736	40896	33423	32885	33230
1607	0	2752	32976	32728	40920	33458	32887	33198
1608	0	0	32976	32728	40920	33458	32887	33198
1609	0	0	33008	32712	40944	33443	32871	33263
1610	0	0	33008	32712	40944	33443	32871	33263
1611	0	0	33008	32712	40944	33443	32871	33263
1612	0	0	32968	32664	40872	33458	32881	33230
1613	0	0	32968	32664	40872	33458	32881	33230
1614	0	16352	32932	32688	41012	33456	32884	33169
1615	0	31104	32932	32688	41012	33456	32884	33169
1616	0	65520	32932	32688	41012	33456	32884	33169
1617	0	65520	32948	32688	40984	33439	32889	33219
1618	0	65520	32948	32688	40984	33439	32889	33219
1619	0	65520	32940	32736	40888	33455	32859	33173
1620	0	65520	32940	32736	40888	33455	32859	33173
1621	0	65520	32940	32736	40888	33455	32859	33173
1622	0	65520	32968	32704	40864	33436	32902	33175
1623	0	64096	32968	32704	40864	33436	32902	33175
1624	0	62992	32968	32704	40864	33436	32902	33175
1625	0	22864	32976	32688	40944	33434	32907	33198
1626	0	0	32976	32688	40944	33434	32907	33198
1627	0	0	33000	32696	40992	33456	32868	33211
1628	0	0	33000	32696	40992	33456	32868	33211
1629	0	0	33000	32696	40992	33456	32868	33211
1630	0	0	32980	32728	40848	33441	32881	33187
1631	0	0	32980	32728	40848	33441	32881	33187
1632	0	0	32968	32712	40996	33430	32885	33175
1633	0	0	32968	32712	40996	33430	32885	33175
1634	0	19600	32968	32712	40996	33430	32885	33175
1635	0	41632	32952	32736	40960	33449	32876	33185
1636	0	59520	32952	32736	40960	33449	32876	33185
1637	0	65520	32988	32696	40880	33444	32889	33174
1638	0	65520	32988	32696	40880	33444	32889	33174
1639	0	65520	32988	32696	40880	33444	32889	33174
1640	0	65520	32960	32728	40952	33430	32880	33179
1641	0	65520	32960	32728	40952	33430	32880	33179
1642	0	65520	33000	32728	40944	33457	32862	33185
1643	0	58576	33000	32728	40944	33457	32862	33185
1644	0	57856	33000	32728	40944	33457	32862	33185
1645	0	22240	32984	32736	40952	33442	32861	33223
1646	0	0	32984	32736	40952	33442	32861	33223
1647	0	24400	32984	32736	40952	33442	32861	33223
1648	0	0	32976	32740	40880	33445	32912	33227
1649	0	0	32976	32740	40880	33445	32912	33227
1650	0	0	32948	32696	40928	33436	32889	33233
1651	0	0	32948	32696	40928	33436	32889	33233
1652	0	0	32948	32696	40928	33436	32889	33233
1653	0	0	32996	32744	40920	33456	32888	33206
1654	0	14464	32996	32744	40920	33456	32888	33206
1655	0	44160	32952	32712	40984	33442	32873	33195
1656	0	48256	32952	32712	40984	33442	32873	33195
1657	0	65520	32952	32712	40984	33442	32873	33195
1658	0	65520	32960	32744	40952	33459	32877	33186
1659	0	65520	32960	32744	40952	33459	32877	33186
1660	0	65520	33000	32752	40928	33433	32861	33192
1661	0	65520	33000	32752	40928	33433	32861	33192
1662	0	65520	33000	32752	40928	33433	32861	33192
1663	0	65520	32972	32728	40972	33464	32864	33204
1664	0	42592	32972	32728	40972	33464	32864	33204
1665	0	36000	32980	32704	40960	33446	32886	33210
1666	0	0	32980	32704	40960	33446	32886	33210
1667	0	13776	32980	32704	40960	33446	32886	33210
1668	0	0	32956	32688	40944	33414	32889	33235
1669	0	0	32956	32688	40944	33414	32889	33235
1670	0	0	33000	32696	40912	33443	32889	33251
1671	0	0	33000	32696	40912	33443	32889	33251
1672	0	0	33000	32696	40912	33443	32889	33251
1673	0	0	32996	32696	40880	33461	32861	33196
1674	0	16816	32996	32696	40880	33461	32861	33196
1675	0	49920	32996	32696	40880	33461	32861	33196
1676	0	65520	32992	32704	40928	33448	32890	33227
1677	0	65520	32992	32704	40928	33448	32890	33227
1678	0	65520	33000	32688	40928	33472	32873	33214
1679	0	65520	33000	32688	40928	33472	32873	33214
1680	0	65520	33000	32688	40928	33472	32873	33214
1681	0	65520	33020	32728	40912	33463	32860	33195
1682	0	65520	33020	32728	40912	33463	32860	33195
1683	0	65520	32976	32752	40936	33422	32912	33247
1684	0	39680	32976	32752	40936	33422	32912	33247
1685	0	35312	32976	32752	40936	33422	32912	33247
1686	0	2528	32992	32736	40880	33449	32895	33207
1687	0	0	32992	32736	40880	33449	32895	33207
1688	0	0	32972	32680	40920	33454	32881	33206
1689	0	0	32972	32680	40920	33454	32881	33206
1690	0	0	32972	32680	40920	33454	32881	33206
1691	0	0	32960	32696	40920	33439	32861	33180
1692	0	0	32960	32696	40920	33439	32861	33180
1693	0	0	32980	32688	40968	33446	32879	33239
1694	0	0	32980	32688	40968	33446	32879	33239
1695	0	36736	32980	32688	40968	33446	32879	33239
1696	0	65520	32992	32728	40936	33464	32892	33195
1697	0	65520	32992	32728	40936	33464	32892	33195
1698	0	65520	32992	32728	40936	33464	32892	33195
1699	0	65520	32944	32728	40920	33451	32877	33185
1700	0	65520	32944	32728	40920	33451	32877	33185
1701	0	65520	32916	32696	40944	33447	32891	33207
1702	0	65520	32916	32696	40944	33447	32891	33207
1703	0	65520	32916	32696	40944	33447	32891	33207
1704	0	65520	32984	32704	40952	33439	32877	33184
1705	0	11792	32984	32704	40952	33439	32877	33184
1706	0	0	32972	32656	40920	33440	32858	33178
1707	0	0	32972	32656	40920	33440	32858	33178
1708	0	0	32972	32656	40920	33440	32858	33178
1709	0	0	32952	32720	40896	33436	32890	33216
1710	0	0	32952	32720	40896	33436	32890	33216
1711	0	0	32948	32696	40968	33458	32873	33193
1712	0	0	32948	32696	40968	33458	32873	33193
1713	0	16848	32948	32696	40968	33458	32873	33193
1714	0	8720	32952	32712	40960	33417	32877	33198
1715	0	35216	32952	32712	40960	33417	32877	33198
1716	0	65520	32964	32696	40976	33442	32875	33164
1717	0	58640	32964	32696	40976	33442	32875	33164
1718	0	65520	32964	32696	40976	33442	32875	33164
1719	0	65520	32952	32736	40968	33439	32867	33189
1720	0	65520	32952	32736	40968	33439	32867	33189
1721	0	65520	33012	32744	40896	32722	32866	33169
1722	0	65520	33012	32744	40896	32722	32866	33169
1723	0	65520	33012	32744	40896	32722	32866	33169
1724	0	53568	33008	32736	40992	33394	32842	33171
1725	0	0	33008	32736	40992	33394	32842	33171
1726	0	18192	33008	32736	40992	33394	32842	33171
1727	0	0	32952	32696	40904	33437	32869	33261
1728	0	0	32952	32696	40904	33437	32869	33261
1729	0	0	32984	32720	41016	33472	32880	33188
1730	0	0	32984	32720	41016	33472	32880	33188
1731	0	0	32984	32720	41016	33472	32880	33188
1732	0	0	32992	32728	41004	33452	32872	33208
1733	0	0	32992	32728	41004	33452	32872	33208
1734	0	14480	32988	32648	40944	33445	32854	33259
1735	0	38576	32988	32648	40944	33445	32854	33259
1736	0	65520	32988	32648	40944	33445	32854	33259
1737	0	65520	32984	32704	40856	33450	32883	33213
1738	0	65520	32984	32704	40856	33450	32883	33213
1739	0	65520	32944	32672	40960	33462	32891	33200
1740	0	65520	32944	32672	40960	33462	32891	33200
1741	0	65520	32944	32672	40960	33462	32891	33200
1742	0	65520	32936	32720	40912	33448	32882	33222
1743	0	65520	32936	32720	40912	33448	32882	33222
1744	0	59824	32984	32720	40920	33439	32874	33182
1745	0	0	32984	32720	40920	33439	32874	33182
1746	0	10752	32984	32720	40920	33439	32874	33182
1747	0	1424	32968	32712	40984	33441	32841	33185
1748	0	0	32968	32712	40984	33441	32841	33185
1749	0	0	32968	32712	40984	33441	32841	33185
1750	0	0	32948	32704	40952	33417	32884	33194
1751	0	0	32948	32704	40952	33417	32884	33194
1752	0	0	32952	32720	40984	33443	32861	33172
1753	0	0	32952	32720	40984	33443	32861	33172
1754	0	20960	32952	32720	40984	33443	32861	33172
1755	0	38560	32988	32688	40952	33451	32865	33186
1756	0	60400	32988	32688	40952	33451	32865	33186
1757	0	57664	32992	32688	40960	33435	32863	33240
1758	0	65520	32992	32688	40960	33435	32863	33240
1759	0	65520	32992	32688	40960	33435	32863	33240
1760	0	65520	32984	32704	40952	33419	32859	33202
1761	0	65520	32984	32704	40952	33419	32859	33202
1762	0	65520	32952	32712	40888	33444	32874	33192
1763	0	65520	32952	32712	40888	33444	32874	33192
1764	0	64144	32952	32712	40888	33444	32874	33192
1765	0	23872	32992	32696	40920	33450	32883	33183
1766	0	0	32992	32696	40920	33450	32883	33183
1767	0	14368	32984	32736	41016	33421	32874	33220
1768	0	0	32984	32736	41016	33421	32874	33220
1769	0	0	32984	32736	41016	33421	32874	33220
1770	0	0	33000	32720	41012	33436	32871	33198
1771	0	0	33000	32720	41012	33436	32871	33198
1772	0	0	33000	32720	41012	33436	32871	33198
1773	0	0	32964	32704	40864	33437	32883	33202
1774	0	8608	32964	32704	40864	33437	32883	33202
1775	0	34944	32980	32744	40920	33449	32880	33212
1776	0	49296	32980	32744	40920	33449	32880	33212
1777	0	65520	32980	32744	40920	33449	32880	33212
1778	0	65520	32996	32748	40944	33439	32879	33183
1779	0	65520	32996	32748	40944	33439	32879	33183
1780	0	65520	32992	32704	40888	33430	32883	33197
1781	0	65520	32992	32704	40888	33430	32883	33197
1782	0	65520	32992	32704	40888	33430	32883	33197
1783	0	65520	33000	32712	40920	33412	32866	33187
1784	0	45664	33000	32712	40920	33412	32866	33187
1785	0	31488	32980	32720	40952	33404	32875	33176
1786	0	0	32980	32720	40952	33404	32875	33176
1787	0	16352	32980	32720	40952	33404	32875	33176
1788	0	0	32964	32728	40944	33442	32861	33158
1789	0	0	32964	32728	40944	33442	32861	33158
1790	0	0	32980	32736	40944	33433	32870	33226
1791	0	0	32980	32736	40944	33433	32870	33226
1792	0	0	32980	32736	40944	33433	32870	33226
1793	0	0	32948	32720	41000	33429	32860	33211
1794	0	14208	32948	32720	41000	33429	32860	33211
1795	0	47920	32948	32720	41000	33429	32860	33211
1796	0	50144	33000	32680	40928	33447	32888	33221
1797	0	65520	33000	32680	40928	33447	32888	33221
1798	0	65520	32988	32688	40960	33444	32888	33191
1799	0	65520	32988	32688	40960	33444	32888	33191
1800	0	65520	32988	32688	40960	33444	32888	33191
1801	0	65520	32988	32712	40944	33437	32887	33156
1802	0	65520	32988	32712	40944	33437	32887	33156
1803	0	65520	32964	32720	40888	33436	32889	33238
1804	0	33888	32964	32720	40888	33436	32889	33238
1805	0	60016	32964	32720	40888	33436	32889	33238
1806	0	3136	33004	32756	40928	33440	32882	33183
1807	0	0	33004	32756	40928	33440	32882	33183
1808	0	0	32980	32744	40920	33439	32888	33213
1809	0	0	32980	32744	40920	33439	32888	33213
1810	0	0	32980	32744	40920	33439	32888	33213
1811	0	0	32988	32688	40888	33424	32849	33177
1812	0	0	32988	32688	40888	33424	32849	33177
1813	0	0	32960	32696	40896	33442	32876	33219
1814	0	0	32960	32696	40896	33442	32876	33219
1815	0	43264	32960	32696	40896	33442	32876	33219
1816	0	63328	32968	32720	40936	33440	32875	33200
1817	0	65520	32968	32720	40936	33440	32875	33200
1818	0	65520	32992	32688	40928	33443	32881	33232
1819	0	65520	32992	32688	40928	33443	32881	33232
1820	0	65520	32992	32688	40928	33443	32881	33232
1821	0	65520	32992	32696	40960	33444	32885	33199
1822	0	65520	32992	32696	40960	33444	32885	33199
1823	0	65520	32992	32696	40960	33444	32885	33199
1824	0	53344	32956	32664	40944	33440	32854	33175
1825	0	24032	32956	32664	40944	33440	32854	33175
1826	0	4384	32984	32696	41004	33434	32875	33182
1827	0	0	32984	32696	41004	33434	32875	33182
1828	0	0	32984	32696	41004	33434	32875	33182
1829	0	0	33020	32680	40944	33458	32879	33203
1830	0	0	33020	32680	40944	33458	32879	33203
1831	0	0	32988	32680	40880	33461	32869	33224
1832	0	0	32988	32680	40880	33461	32869	33224
1833	0	3456	32988	32680	40880	33461	32869	33224
1834	0	13312	33000	32712	40960	33447	32860	33198
1835	0	27248	33000	32712	40960	33447	32860	33198
1836	0	65520	33004	32664	40888	33455	32875	33192
1837	0	40384	33004	32664	40888	33455	32875	33192
1838	0	65520	33004	32664	40888	33455	32875	33192
1839	0	65520	32980	32744	40912	33445	32890	33174
1840	0	65520	32980	32744	40912	33445	32890	33174
1841	0	65520	32988	32664	40928	33448	32879	33170
1842	0	65520	32988	32664	40928	33448	32879	33170
1843	0	65520	32988	32664	40928	33448	32879	33170
1844	0	65520	32988	32720	41000	33447	32892	33205
1845	0	5408	32988	32720	41000	33447	32892	33205
1846	0	13312	32988	32720	40936	33454	32886	33210
1847	0	0	32988	32720	40936	33454	32886	33210
1848	0	0	32988	32720	40936	33454	32886	33210
1849	0	0	32988	32728	40912	33441	32875	33168
1850	0	0	32988	32728	40912	33441	32875	33168
1851	0	0	32988	32728	40912	33441	32875	33168
1852	0	0	32980	32712	40968	33427	32881	33146
1853	0	0	32980	32712	40968	33427	32881	33146
1854	0	10336	33020	32712	40952	33442	32872	33203
1855	0	23664	33020	32712	40952	33442	32872	33203
1856	0	65520	33020	32712	40952	33442	32872	33203
1857	0	65520	33020	32752	40896	33453	32861	33166
1858	0	65520	33020	32752	40896	33453	32861	33166
1859	0	65520	32952	32704	40904	33442	32882	33258
1860	0	65520	32952	32704	40904	33442	32882	33258
1861	0	65520	32952	32704	40904	33442	32882	33258
1862	0	65520	32968	32696	40856	33411	32877	33234
1863	0	65520	32968	32696	40856	33411	32877	33234
1864	0	57104	33008	32760	40928	33459	32887	33250
1865	0	13616	33008	32760	40928	33459	32887	33250
1866	0	17728	33008	32760	40928	33459	32887	33250
1867	0	3728	32976	32688	40952	33456	32880	33204
1868	0	0	32976	32688	40952	33456	32880	33204
1869	0	0	32996	32712	41020	33456	32856	33196
1870	0	0	32996	32712	41020	33456	32856	33196
1871	0	0	32996	32712	41020	33456	32856	33196
1872	0	0	32968	32688	40888	33442	32869	33210
1873	0	0	32968	32688	40888	33442	32869	33210
1874	0	19872	32968	32688	40888	33442	32869	33210
1875	0	31792	33000	32704	40928	33454	32886	33206
1876	0	65520	33000	32704	40928	33454	32886	33206
1877	0	65520	33020	32688	40944	33458	32878	33198
1878	0	65520	33020	32688	40944	33458	32878	33198
1879	0	65520	33020	32688	40944	33458	32878	33198
1880	0	65520	32984	32736	40968	33435	32880	33195
1881	0	65520	32984	32736	40968	33435	32880	33195
1882	0	65520	32980	32720	40952	33434	32873	33181
1883	0	65520	32980	32720	40952	33434	32873	33181
1884	0	65520	32980	32720	40952	33434	32873	33181
1885	0	23536	32980	32728	40864	33445	32875	33199
1886	0	0	32980	32728	40864	33445	32875	33199
1887	0	19984	33020	32736	41000	33443	32866	33182
1888	0	0	33020	32736	41000	33443	32866	33182
1889	0	0	33020	32736	41000	33443	32866	33182
1890	0	0	32976	32704	40912	33443	32861	33203
1891	0	0	32976	32704	40912	33443	32861	33203
1892	0	0	33000	32720	40928	33450	32866	33242
1893	0	0	33000	32720	40928	33450	32866	33242
1894	0	33280	33000	32720	40928	33450	32866	33242
1895	0	35680	33000	32772	40920	33466	32879	33192
1896	0	49792	33000	32772	40920	33466	32879	33192
1897	0	63536	32948	32736	40960	33440	32860	33209
1898	0	65520	32948	32736	40960	33440	32860	33209
1899	0	65520	32948	32736	40960	33440	32860	33209
1900	0	65520	32980	32704	40968	33451	32885	33198
1901	0	65520	32980	32704	40968	33451	32885	33198
1902	0	65520	32980	32704	40968	33451	32885	33198
1903	0	65520	32972	32664	40912	33460	32859	33185
1904	0	49488	32972	32664	40912	33460	32859	33185
1905	0	31552	32992	32664	40984	33440	32879	33157
1906	0	0	32992	32664	40984	33440	32879	33157
1907	0	17584	32992	32664	40984	33440	32879	33157
1908	0	0	32980	32712	40944	33430	32869	33167
1909	0	0	32980	32712	40944	33430	32869	33167
1910	0	0	32960	32680	40952	33455	32854	33198
1911	0	0	32960	32680	40952	33455	32854	33198
1912	0	0	32960	32680	40952	33455	32854	33198
1913	0	0	32952	32736	41012	33449	32849	33206
1914	0	8720	32952	32736	41012	33449	32849	33206
1915	0	38624	32956	32696	40904	33441	32875	33215
1916	0	48992	32956	32696	40904	33441	32875	33215
1917	0	65520	32956	32696	40904	33441	32875	33215
1918	0	65520	32968	32712	40872	33463	32876	33187
1919	0	65520	32968	32712	40872	33463	32876	33187
1920	0	65520	32984	32712	40976	33450	32860	33192
1921	0	65520	32984	32712	40976	33450	32860	33192
1922	0	65520	32984	32712	40976	33450	32860	33192
1923	0	65520	32956	32672	41052	33437	32850	33199
1924	0	37184	32956	32672	41052	33437	32850	33199
1925	0	33712	32956	32672	41052	33437	32850	33199
1926	0	5904	32976	32720	40944	33422	32886	33213
1927	0	6816	32976	32720	40944	33422	32886	33213
1928	0	0	32960	32720	40840	33455	32895	33217
1929	0	0	32960	32720	40840	33455	32895	33217
1930	0	0	32960	32720	40840	33455	32895	33217
1931	0	0	32992	32712	40984	33463	32865	33195
1932	0	0	32992	32712	40984	33463	32865	33195
1933	0	704	32988	32680	40904	33450	32884	33217
1934	0	0	32988	32680	40904	33450	32884	33217
1935	0	44064	32988	32680	40904	33450	32884	33217
1936	0	65520	32988	32696	40976	33455	32885	33208
1937	0	62752	32988	32696	40976	33455	32885	33208
1938	0	65520	32996	32688	40904	33434	32847	33238
1939	0	65520	32996	32688	40904	33434	32847	33238
1940	0	65520	32996	32688	40904	33434	32847	33238
1941	0	65520	33000	32720	40976	33436	32870	33181
1942	0	65520	33000	32720	40976	33436	32870	33181
1943	0	65520	33000	32672	40904	33432	32890	33220
1944	0	40512	33000	32672	40904	33432	32890	33220
1945	0	33456	33000	32672	40904	33432	32890	33220
1946	0	2288	32964	32744	40944	33421	32885	33215
1947	0	0	32964	32744	40944	33421	32885	33215
1948	0	0	32992	32696	40944	33453	32893	33201
1949	0	0	32992	32696	40944	33453	32893	33201
1950	0	0	32992	32696	40944	33453	32893	33201
1951	0	0	33000	32744	40920	33445	32874	33199
1952	0	0	33000	32744	40920	33445	32874	33199
1953	0	0	33000	32744	40920	33445	32874	33199
1954	0	10096	33024	32712	40912	33461	32867	33176
1955	0	30640	33024	32712	40912	33461	32867	33176
1956	0	65520	32964	32728	40872	33440	32886	33228
1957	0	53024	32964	32728	40872	33440	32886	33228
1958	0	65520	32964	32728	40872	33440	32886	33228
1959	0	65520	32988	32728	40920	33449	32857	33174
1960	0	65520	32988	32728	40920	33449	32857	33174
1961	0	65520	32972	32712	40952	33458	32862	33194
1962	0	65520	32972	32712	40952	33458	32862	33194
1963	0	65520	32972	32712	40952	33458	32862	33194
1964	0	55440	32960	32744	40976	33452	32891	33204
1965	0	9872	32960	32744	40976	33452	32891	33204
1966	0	8192	32984	32712	40952	33459	32898	33238
1967	0	0	32984	32712	40952	33459	32898	33238
1968	0	0	32984	32712	40952	33459	32898	33238
1969	0	0	32988	32728	40960	33452	32893	33190
1970	0	0	32988	32728	40960	33452	32893	33190
1971	0	0	32952	32728	40904	33432	32861	33190
1972	0	0	32952	32728	40904	33432	32861	33190
1973	0	11360	32952	32728	40904	33432	32861	33190
1974	0	11168	32980	32720	40968	33444	32877	33204
1975	0	41520	32980	32720	40968	33444	32877	33204
1976	0	65520	32980	32720	40968	33444	32877	33204
1977	0	65520	32984	32704	40944	33426	32861	33169
1978	0	65520	32984	32704	40944	33426	32861	33169
1979	0	65520	32980	32736	40896	33443	32872	33187
1980	0	65520	32980	32736	40896	33443	32872	33187
1981	0	65520	32980	32736	40896	33443	32872	33187
1982	0	65520	32976	32712	40936	33405	32860	33207
1983	0	65520	32976	32712	40936	33405	32860	33207
1984	0	62832	32976	32664	40984	33442	32864	33147
1985	0	3136	32976	32664	40984	33442	32864	33147
1986	0	16256	32976	32664	40984	33442	32864	33147
1987	0	0	32940	32704	40976	33464	32866	33187
1988	0	0	32940	32704	40976	33464	32866	33187
1989	0	0	33020	32696	40896	33436	32893	33234
1990	0	0	33020	32696	40896	33436	32893	33234
1991	0	0	33020	32696	40896	33436	32893	33234
1992	0	0	32984	32704	40904	33460	32891	33202
1993	0	0	32984	32704	40904	33460	32891	33202
1994	0	18464	32980	32704	40944	33438	32866	33207
1995	0	32608	32980	32704	40944	33438	32866	33207
1996	0	65520	32980	32704	40944	33438	32866	33207
1997	0	65520	33020	32736	40944	33442	32880	33206
1998	0	65520	33020	32736	40944	33442	32880	33206
1999	0	65520	32976	32720	40896	33452	32881	33198
2000	0	65520	32976	32720	40896	33452	32881	33198
2001	0	65520	32976	32720	40896	33452	32881	33198
2002	0	65520	33008	32732	40952	33452	32863	33169
2003	0	65520	33008	32732	40952	33452	32863	33169
2004	0	63984	33008	32732	40952	33452	32863	33169
2005	0	24000	33020	32704	40960	33445	32848	33171
2006	0	1136	33020	32704	40960	33445	32848	33171
2007	0	6640	32988	32744	41000	33468	32862	33187
2008	0	0	32988	32744	41000	33468	32862	33187
2009	0	0	32988	32744	41000	33468	32862	33187
2010	0	0	32932	32712	40920	33438	32871	33187
2011	0	0	32932	32712	40920	33438	32871	33187
2012	0	0	32980	32696	40912	33447	32879	33212
2013	0	0	32980	32696	40912	33447	32879	33212
2014	0	22192	32980	32696	40912	33447	32879	33212
2015	0	30688	33000	32696	40952	33448	32877	33198
2016	0	54576	33000	32696	40952	33448	32877	33198
2017	0	65520	32984	32672	40936	33450	32877	33195
2018	0	65520	32984	32672	40936	33450	32877	33195
2019	0	65520	32984	32672	40936	33450	32877	33195
2020	0	65520	32952	32696	40928	33431	32880	33209
2021	0	65520	32952	32696	40928	33431	32880	33209
2022	0	65520	32980	32728	40832	33434	32871	33203
2023	0	64624	32980	32728	40832	33434	32871	33203
2024	0	60080	32980	32728	40832	33434	32871	33203
2025	0	26304	32992	32712	40912	33445	32871	33171
2026	0	0	32992	32712	40912	33445	32871	33171
2027	0	18912	32992	32712	40912	33445	32871	33171
2028	0	0	33008	32704	40888	33479	32884	33191
2029	0	0	33008	32704	40888	33479	32884	33191
2030	0	0	33000	32704	40936	33462	32849	33156
2031	0	0	33000	32704	40936	33462	32849	33156
2032	0	0	33000	32704	40936	33462	32849	33156
2033	0	0	32984	32712	40920	33455	32860	33184
2034	0	8544	32984	32712	40920	33455	32860	33184
2035	0	35568	32960	32712	40968	33459	32857	33169
2036	0	47008	32960	32712	40968	33459	32857	33169
2037	0	65520	32960	32712	40968	33459	32857	33169
2038	0	65520	32988	32704	40960	33453	32858	33195
2039	0	65520	32988	32704	40960	33453	32858	33195
2040	0	65520	32984	32744	40952	33457	32866	33213
2041	0	65520	32984	32744	40952	33457	32866	33213
2042	0	65520	32984	32744	40952	33457	32866	33213
2043	0	65520	32952	32736	40880	33432	32871	33199
2044	0	45456	32952	32736	40880	33432	32871	33199
2045	0	33680	32948	32752	40888	33425	32861	33227
2046	0	0	32948	32752	40888	33425	32861	33227
2047	0	10288	32948	32752	40888	33425	32861	33227
2048	0	0	32924	32728	40888	33447	32858	33211
2049	0	0	32924	32728	40888	33447	32858	33211
2050	0	0	32924	32728	40888	33447	32858	33211
2051	0	0	33000	32736	40840	33435	32844	33186
2052	0	0	33000	32736	40840	33435	32844	33186
2053	0	0	32960	32712	40944	33438	32856	33197
2054	0	0	32960	32712	40944	33438	32856	33197
2055	0	38160	32960	32712	40944	33438	32856	33197
2056	0	65520	32952	32744	40896	33441	32865	33183
2057	0	57888	32952	32744	40896	33441	32865	33183
2058	0	65520	33000	32748	40992	33466	32880	33152
2059	0	65520	33000	32748	40992	33466	32880	33152
2060	0	65520	33000	32748	40992	33466	32880	33152
2061	0	65520	33000	32696	40920	33447	32879	33191
2062	0	65520	33000	32696	40920	33447	32879	33191
2063	0	65520	32964	32712	40920	33471	32885	33202
2064	0	40096	32964	32712	40920	33471	32885	33202
2065	0	40672	32964	32712	40920	33471	32885	33202
2066	0	1200	32948	32712	40920	33458	32875	33201
2067	0	0	32948	32712	40920	33458	32875	33201
2068	0	0	32924	32720	40984	33436	32877	33158
2069	0	0	32924	32720	40984	33436	32877	33158
2070	0	0	32924	32720	40984	33436	32877	33158
2071	0	0	33020	32764	41020	33459	32867	33184
2072	0	0	33020	32764	41020	33459	32867	33184
2073	0	0	33020	32764	41020	33459	32867	33184
2074	0	12832	33012	32736	40960	33439	32862	33151
2075	0	28752	33012	32736	40960	33439	32862	33151
2076	0	65520	33000	32688	40912	33435	32879	33203
2077	0	35072	33000	32688	40912	33435	32879	33203
2078	0	65520	33000	32688	40912	33435	32879	33203
2079	0	65520	32992	32664	40896	33438	32863	33187
2080	0	65520	32992	32664	40896	33438	32863	33187
2081	0	65520	32972	32736	40968	33442	32860	33201
2082	0	65520	32972	32736	40968	33442	32860	33201
2083	0	65520	32972	32736	40968	33442	32860	33201
2084	0	50608	32984	32696	41000	33456	32879	33183
2085	0	20304	32984	32696	41000	33456	32879	33183
2086	0	14336	32980	32680	40880	33445	32851	33182
2087	0	0	32980	32680	40880	33445	32851	33182
2088	0	0	32980	32680	40880	33445	32851	33182
2089	0	0	33016	32712	40952	33464	32872	33218
2090	0	0	33016	32712	40952	33464	32872	33218
2091	0	0	32980	32720	40952	33446	32879	33182
2092	0	0	32980	32720	40952	33446	32879	33182
2093	0	0	32980	32720	40952	33446	32879	33182
2094	0	15712	32960	32704	40968	32713	32853	33159
2095	0	33408	32960	32704	40968	32713	32853	33159
2096	0	65520	32960	32704	40968	32713	32853	33159
2097	0	65520	33000	32756	40976	33371	32869	33212
2098	0	65520	33000	32756	40976	33371	32869	33212
2099	0	65520	32996	32752	40896	33436	32872	33218
2100	0	65520	32996	32752	40896	33436	32872	33218
2101	0	65520	32996	32752	40896	33436	32872	33218
2102	0	65520	32992	32720	40920	33459	32875	33172
2103	0	65520	32992	32720	40920	33459	32875	33172
2104	0	63824	32992	32728	40936	33453	32856	33149
2105	0	10912	32992	32728	40936	33453	32856	33149
2106	0	16672	32992	32728	40936	33453	32856	33149
2107	0	0	32952	32764	40952	33443	32852	33174
2108	0	0	32952	32764	40952	33443	32852	33174
2109	0	0	32968	32696	40920	33452	32865	33218
2110	0	0	32968	32696	40920	33452	32865	33218
2111	0	0	32968	32696	40920	33452	32865	33218
2112	0	0	32952	32680	40936	33454	32861	33190
2113	0	0	32952	32680	40936	33454	32861	33190
2114	0	14688	32948	32688	40904	33455	32869	33208
2115	0	21216	32948	32688	40904	33455	32869	33208
2116	0	65520	32948	32688	40904	33455	32869	33208
2117	0	65520	32976	32720	40936	33449	32881	33186
2118	0	65520	32976	32720	40936	33449	32881	33186
2119	0	65520	32976	32720	40936	33449	32881	33186
2120	0	65520	32952	32712	40920	33456	32837	33152
2121	0	65520	32952	32712	40920	33456	32837	33152
2122	0	65520	32964	32712	40864	33447	32870	33204
2123	0	65520	32964	32712	40864	33447	32870	33204
2124	0	65520	32964	32712	40864	33447	32870	33204
2125	0	35280	32952	32732	40912	33475	32871	33180
2126	0	0	32952	32732	40912	33475	32871	33180
2127	0	20368	33008	32720	40976	33436	32876	33160
2128	0	0	33008	32720	40976	33436	32876	33160
2129	0	0	33008	32720	40976	33436	32876	33160
2130	0	0	33008	32664	40984	33448	32855	33200
2131	0	0	33008	32664	40984	33448	32855	33200
2132	0	0	33012	32712	40840	33444	32868	33210
2133	0	0	33012	32712	40840	33444	32868	33210
2134	0	28752	33012	32712	40840	33444	32868	33210
2135	0	29136	32980	32712	40888	33444	32844	33169
2136	0	59648	32980	32712	40888	33444	32844	33169
2137	0	64848	33012	32728	40904	33412	32875	33209
2138	0	65520	33012	32728	40904	33412	32875	33209
2139	0	65520	33012	32728	40904	33412	32875	33209
2140	0	65520	32976	32712	40912	33442	32868	33183
2141	0	65520	32976	32712	40912	33442	32868	33183
2142	0	65520	32948	32672	40960	33445	32858	33179
2143	0	65520	32948	32672	40960	33445	32858	33179
2144	0	58288	32948	32672	40960	33445	32858	33179
2145	0	39664	32904	32680	40984	33432	32853	33167
2146	0	0	32904	32680	40984	33432	32853	33167
2147	0	7392	32904	32680	40984	33432	32853	33167
2148	0	0	33004	32664	40904	33439	32879	33221
2149	0	0	33004	32664	40904	33439	32879	33221
2150	0	0	32984	32728	40984	33447	32862	33181
2151	0	0	32984	32728	40984	33447	32862	33181
2152	0	0	32984	32728	40984	33447	32862	33181
2153	0	0	33012	32704	40952	33449	32872	33213
2154	0	0	33012	32704	40952	33449	32872	33213
2155	0	28768	32944	32712	40936	33458	32873	33169
2156	0	37216	32944	32712	40936	33458	32873	33169
2157	0	65520	32944	32712	40936	33458	32873	33169
2158	0	65520	33000	32744	40888	33447	32875	33197
2159	0	65520	33000	32744	40888	33447	32875	33197
2160	0	65520	33012	32704	40888	33430	32862	33240
2161	0	65520	33012	32704	40888	33430	32862	33240
2162	0	65520	33012	32704	40888	33430	32862	33240
2163	0	65520	33000	32696	40920	33443	32873	33172
2164	0	47200	33000	32696	40920	33443	32873	33172
2165	0	45216	32996	32720	41016	33450	32877	33178
2166	0	0	32996	32720	41016	33450	32877	33178
2167	0	12688	32996	32720	41016	33450	32877	33178
2168	0	0	33004	32672	40912	33437	32862	33171
2169	0	0	33004	32672	40912	33437	32862	33171
2170	0	0	33004	32672	40912	33437	32862	33171
2171	0	0	32956	32728	40968	33460	32882	33232
2172	0	0	32956	32728	40968	33460	32882	33232
2173	0	0	32980	32712	40936	33201	32887	33184
2174	0	0	32980	32712	40936	33201	32887	33184
2175	0	37584	32980	32712	40936	33201	32887	33184
2176	0	65520	32992	32688	40904	33427	32868	33173
2177	0	59056	32992	32688	40904	33427	32868	33173
2178	0	65520	33008	32704	40944	33454	32870	33182
2179	0	65520	33008	32704	40944	33454	32870	33182
2180	0	65520	33008	32704	40944	33454	32870	33182
2181	0	65520	32936	32712	40936	33455	32906	33215
2182	0	65520	32936	32712	40936	33455	32906	33215
2183	0	65520	33000	32720	40896	33432	32886	33229
2184	0	38192	33000	32720	40896	33432	32886	33229
2185	0	47712	33000	32720	40896	33432	32886	33229
2186	0	0	32968	32656	40904	33439	32883	33204
2187	0	0	32968	32656	40904	33439	32883	33204
2188	0	0	32980	32728	40944	33453	32892	33218
2189	0	0	32980	32728	40944	33453	32892	33218
2190	0	0	32980	32728	40944	33453	32892	33218
2191	0	0	32996	32768	40872	33442	32878	33176
2192	0	0	32996	32768	40872	33442	32878	33176
2193	0	0	32980	32712	40904	33440	32911	33166
2194	0	3472	32980	32712	40904	33440	32911	33166
2195	0	28032	32980	32712	40904	33440	32911	33166
2196	0	65520	32992	32696	40928	33470	32882	33157
2197	0	46560	32992	32696	40928	33470	32882	33157
2198	0	65520	32992	32696	40928	33470	32882	33157
2199	0	65520	32936	32688	40960	33423	32873	33147
2200	0	65520	32936	32688	40960	33423	32873	33147
2201	0	65520	32944	32728	40984	33449	32860	33159
2202	0	65520	32944	32728	40984	33449	32860	33159
2203	0	65520	32944	32728	40984	33449	32860	33159
2204	0	54064	32972	32728	40984	33455	32882	33180
2205	0	18464	32972	32728	40984	33455	32882	33180
2206	0	11552	32952	32736	40968	33446	32873	33175
2207	0	0	32952	32736	40968	33446	32873	33175
2208	0	0	32952	32736	40968	33446	32873	33175
2209	0	0	32948	32712	40928	33447	32876	33192
2210	0	0	32948	32712	40928	33447	32876	33192
2211	0	0	32960	32672	40936	33469	32875	33184
2212	0	0	32960	32672	40936	33469	32875	33184
2213	0	12672	32960	32672	40936	33469	32875	33184
2214	0	6112	32976	32704	41028	33422	32859	33144
2215	0	22704	32976	32704	41028	33422	32859	33144
2216	0	65520	32996	32728	40912	33443	32859	33202
2217	0	52144	32996	32728	40912	33443	32859	33202
2218	0	65520	32996	32728	40912	33443	32859	33202
2219	0	65520	32984	32720	40904	33443	32896	33188
2220	0	65520	32984	32720	40904	33443	32896	33188
2221	0	65520	32984	32720	40904	33443	32896	33188
2222	0	65520	32992	32736	40976	33424	32874	33145
2223	0	65520	32992	32736	40976	33424	32874	33145
2224	0	58688	32980	32728	40912	33426	32861	33202
2225	0	11920	32980	32728	40912	33426	32861	33202
2226	0	17600	32980	32728	40912	33426	32861	33202
2227	0	0	33000	32688	40976	33431	32849	33222
2228	0	0	33000	32688	40976	33431	32849	33222
2229	0	0	32980	32680	40928	33449	32862	33189
2230	0	0	32980	32680	40928	33449	32862	33189
2231	0	0	32980	32680	40928	33449	32862	33189
2232	0	0	33008	32712	40984	33433	32874	33226
2233	0	0	33008	32712	40984	33433	32874	33226
2234	0	4000	32952	32656	40928	33450	32860	33196
2235	0	22560	32952	32656	40928	33450	32860	33196
2236	0	65520	32952	32656	40928	33450	32860	33196
2237	0	65520	33000	32680	40912	33468	32886	33188
2238	0	65520	33000	32680	40912	33468	32886	33188
2239	0	65520	32968	32672	40888	33440	32873	33214
2240	0	65520	32968	32672	40888	33440	32873	33214
2241	0	65520	32968	32672	40888	33440	32873	33214
2242	0	65520	32972	32736	40920	33444	32879	33197
2243	0	65520	32972	32736	40920	33444	32879	33197
2244	0	65520	33020	32720	40920	33436	32868	33258
2245	0	4560	33020	32720	40920	33436	32868	33258
2246	0	0	33020	32720	40920	33436	32868	33258
2247	0	10432	33028	32680	40944	33446	32868	33189
2248	0	0	33028	32680	40944	33446	32868	33189
2249	0	0	33028	32680	40944	33446	32868	33189
2250	0	0	32992	32712	40960	33437	32872	33194
2251	0	0	32992	32712	40960	33437	32872	33194
2252	0	0	32976	32688	40968	33433	32871	33169
2253	0	0	32976	32688	40968	33433	32871	33169
2254	0	19216	32976	32688	40968	33433	32871	33169
2255	0	22464	32992	32704	40952	33467	32871	33238
2256	0	61584	32992	32704	40952	33467	32871	33238
2257	0	50688	32920	32720	40952	33434	32850	33221
2258	0	65520	32920	32720	40952	33434	32850	33221
2259	0	65520	32920	32720	40952	33434	32850	33221
2260	0	65520	32956	32752	40960	33441	32883	33162
2261	0	65520	32956	32752	40960	33441	32883	33162
2262	0	65520	32940	32704	40968	33440	32870	33220
2263	0	65520	32940	32704	40968	33440	32870	33220
2264	0	65520	32940	32704	40968	33440	32870	33220
2265	0	38272	32936	32696	40920	33431	32870	33223
2266	0	0	32936	32696	40920	33431	32870	33223
2267	0	15584	32928	32696	40944	33442	32886	33187
2268	0	0	32928	32696	40944	33442	32886	33187
2269	0	0	32928	32696	40944	33442	32886	33187
2270	0	0	32980	32772	40944	33458	32882	33173
2271	0	0	32980	32772	40944	33458	32882	33173
2272	0	0	32992	32704	40872	33444	32882	33250
2273	0	0	32992	32704	40872	33444	32882	33250
2274	0	11776	32992	32704	40872	33444	32882	33250
2275	0	27056	32988	32680	40904	33441	32873	33185
2276	0	52336	32988	32680	40904	33441	32873	33185
2277	0	65520	32988	32680	40904	33441	32873	33185
2278	0	65520	32980	32728	40912	33434	32886	33218
2279	0	65520	32980	32728	40912	33434	32886	33218
2280	0	65520	32940	32736	40928	33445	32887	33203
2281	0	65520	32940	32736	40928	33445	32887	33203
2282	0	65520	32940	32736	40928	33445	32887	33203
2283	0	65520	32988	32756	40960	33438	32869	33151
2284	0	47104	32988	32756	40960	33438	32869	33151
2285	0	41888	33000	32712	40888	33438	32890	33191
2286	0	0	33000	32712	40888	33438	32890	33191
2287	0	18560	33000	32712	40888	33438	32890	33191
2288	0	0	33000	32744	40912	33437	32882	33195
2289	0	0	33000	32744	40912	33437	32882	33195
2290	0	0	32976	32736	40896	33447	32886	33170
2291	0	0	32976	32736	40896	33447	32886	33170
2292	0	0	32976	32736	40896	33447	32886	33170
2293	0	0	33000	32672	40944	32728	32859	33192
2294	0	6944	33000	32672	40944	32728	32859	33192
2295	0	33712	32968	32704	40928	33414	32870	33198
2296	0	46880	32968	32704	40928	33414	32870	33198
2297	0	65520	32968	32704	40928	33414	32870	33198
2298	0	65520	32952	32720	40936	33431	32876	33219
2299	0	65520	32952	32720	40936	33431	32876	33219
2300	0	65520	32952	32720	40936	33431	32876	33219
2301	0	65520	32992	32704	40936	33285	32891	33183
2302	0	65520	32992	32704	40936	33285	32891	33183
2303	0	65520	33008	32736	40896	33424	32883	33186
2304	0	45264	33008	32736	40896	33424	32883	33186
2305	0	42496	33008	32736	40896	33424	32883	33186
2306	0	0	32988	32756	40952	33459	32877	33173
2307	0	0	32988	32756	40952	33459	32877	33173
2308	0	0	32924	32712	40992	33440	32869	33161
2309	0	0	32924	32712	40992	33440	32869	33161
2310	0	0	32924	32712	40992	33440	32869	33161
2311	0	0	32976	32704	40952	33440	32868	33216
2312	0	0	32976	32704	40952	33440	32868	33216
2313	0	0	32988	32704	40904	33447	32894	33187
2314	0	0	32988	32704	40904	33447	32894	33187
2315	0	44320	32988	32704	40904	33447	32894	33187
2316	0	65520	33000	32704	40960	33446	32872	33182
2317	0	57072	33000	32704	40960	33446	32872	33182
2318	0	65520	32988	32736	40880	33424	32884	33211
2319	0	65520	32988	32736	40880	33424	32884	33211
2320	0	65520	32988	32736	40880	33424	32884	33211
2321	0	65520	32992	32768	40944	33465	32854	33194
2322	0	65520	32992	32768	40944	33465	32854	33194
2323	0	65520	32960	32688	40880	33448	32883	33207
2324	0	37152	32960	32688	40880	33448	32883	33207
2325	0	35712	32960	32688	40880	33448	32883	33207
2326	0	1056	33008	32720	40896	33448	32878	33238
2327	0	0	33008	32720	40896	33448	32878	33238
2328	0	0	33008	32720	40896	33448	32878	33238
2329	0	0	33008	32728	40936	33429	32903	33246
2330	0	0	33008	32728	40936	33429	32903	33246
2331	0	0	33004	32696	40880	33422	32874	33263
2332	0	0	33004	32696	40880	33422	32874	33263
2333	0	3920	33004	32696	40880	33422	32874	33263
2334	0	8976	32992	32712	40928	33460	32897	33247
2335	0	17648	32992	32712	40928	33460	32897	33247
2336	0	55488	33028	32772	40912	33439	32904	33232
2337	0	53104	33028	32772	40912	33439	32904	33232
2338	0	65520	33028	32772	40912	33439	32904	33232
2339	0	65520	33008	32752	40896	33420	32900	33181
2340	0	65520	33008	32752	40896	33420	32900	33181
2341	0	65520	32956	32736	40904	33434	32873	33182
2342	0	65520	32956	32736	40904	33434	32873	33182
2343	0	65520	32956	32736	40904	33434	32873	33182
2344	0	58176	32984	32740	40936	33444	32895	33186
2345	0	25456	32984	32740	40936	33444	32895	33186
2346	0	9280	33012	32704	40928	33435	32865	33216
2347	0	0	33012	32704	40928	33435	32865	33216
2348	0	0	33012	32704	40928	33435	32865	33216
2349	0	0	33000	32720	40920	33422	32860	33195
2350	0	0	33000	32720	40920	33422	32860	33195
2351	0	0	32964	32696	40904	33454	32844	33159
2352	0	0	32964	32696	40904	33454	32844	33159
2353	0	0	32964	32696	40904	33454	32844	33159
2354	0	11792	32996	32704	40976	33429	32853	33195
2355	0	37712	32996	32704	40976	33429	32853	33195
2356	0	65520	32996	32704	40976	33429	32853	33195
2357	0	65520	32952	32688	40992	33420	32861	33183
2358	0	65520	32952	32688	40992	33420	32861	33183
2359	0	65520	32988	32720	40928	33437	32872	33155
2360	0	65520	32988	32720	40928	33437	32872	33155
2361	0	65520	32988	32720	40928	33437	32872	33155
2362	0	65520	32996	32736	40920	33448	32886	33193
2363	0	65520	32996	32736	40920	33448	32886	33193
2364	0	65520	32968	32728	40896	33440	32857	33190
2365	0	9104	32968	32728	40896	33440	32857	33190
2366	0	12816	32968	32728	40896	33440	32857	33190
2367	0	4864	32992	32720	40920	32713	32869	33198
2368	0	0	32992	32720	40920	32713	32869	33198
2369	0	0	32984	32720	40880	33393	32889	33220
2370	0	0	32984	32720	40880	33393	32889	33220
2371	0	0	32984	32720	40880	33393	32889	33220
2372	0	0	32992	32728	40896	33457	32873	33191
2373	0	0	32992	32728	40896	33457	32873	33191
2374	0	20432	32968	32720	40952	33448	32875	33209
2375	0	29104	32968	32720	40952	33448	32875	33209
2376	0	65520	32968	32720	40952	33448	32875	33209
2377	0	65520	32984	32720	40920	33444	32889	33208
2378	0	65520	32984	32720	40920	33444	32889	33208
2379	0	65520	32984	32720	40920	33444	32889	33208
2380	0	65520	33000	32720	40896	33464	32874	33233
2381	0	65520	33000	32720	40896	33464	32874	33233
2382	0	65520	32992	32728	40920	33438	32871	33243
2383	0	65520	32992	32728	40920	33438	32871	33243
2384	0	65520	32992	32728	40920	33438	32871	33243
2385	0	28608	32972	32712	40928	33440	32893	33225
2386	0	0	32972	32712	40928	33440	32893	33225
2387	0	0	32980	32744	40968	33442	32867	33180
2388	0	0	32980	32744	40968	33442	32867	33180
2389	0	0	32980	32744	40968	33442	32867	33180
2390	0	0	32968	32704	40888	33431	32868	33160
2391	0	0	32968	32704	40888	33431	32868	33160
2392	0	0	32980	32696	41040	33456	32868	33210
2393	0	0	32980	32696	41040	33456	32868	33210
2394	0	23456	32980	32696	41040	33456	32868	33210
2395	0	25328	32960	32720	40968	33450	32867	33217
2396	0	51648	32960	32720	40968	33450	32867	33217
2397	0	65520	32956	32704	40872	33443	32895	33253
2398	0	65520	32956	32704	40872	33443	32895	33253
2399	0	65520	32956	32704	40872	33443	32895	33253
2400	0	65520	32956	32772	40984	33456	32869	33209
2401	0	65520	32956	32772	40984	33456	32869	33209
2402	0	65520	32988	32744	40872	33437	32872	33209
2403	0	59536	32988	32744	40872	33437	32872	33209
2404	0	61056	32988	32744	40872	33437	32872	33209
2405	0	31424	32960	32704	40928	33453	32850	33209
2406	0	0	32960	32704	40928	33453	32850	33209
2407	0	16464	32960	32704	40928	33453	32850	33209
2408	0	0	32988	32712	40936	33442	32885	33230
2409	0	0	32988	32712	40936	33442	32885	33230
2410	0	0	32940	32720	40936	33447	32877	33201
2411	0	0	32940	32720	40936	33447	32877	33201
2412	0	0	32940	32720	40936	33447	32877	33201
2413	0	0	33012	32760	40952	33452	32875	33185
2414	0	3472	33012	32760	40952	33452	32875	33185
2415	0	37536	32992	32720	40976	33449	32891	33159
2416	0	45056	32992	32720	40976	33449	32891	33159
2417	0	62112	32992	32720	40976	33449	32891	33159
2418	0	65520	32980	32704	40952	33446	32895	33218
2419	0	65520	32980	32704	40952	33446	32895	33218
2420	0	65520	33040	32696	40936	33450	32882	33242
2421	0	65520	33040	32696	40936	33450	32882	33242
2422	0	65520	33040	32696	40936	33450	32882	33242
2423	0	65520	33012	32664	40968	33441	32878	33180
2424	0	54112	33012	32664	40968	33441	32878	33180
2425	0	38720	32988	32712	40904	33444	32867	33221
2426	0	0	32988	32712	40904	33444	32867	33221
2427	0	21568	32988	32712	40904	33444	32867	33221
2428	0	0	32964	32720	40904	33434	32858	33167
2429	0	0	32964	32720	40904	33434	32858	33167
2430	0	0	32964	32720	40904	33434	32858	33167
2431	0	0	32952	32728	40968	33427	32896	33247
2432	0	0	32952	32728	40968	33427	32896	33247
2433	0	0	32952	32712	40960	33454	32851	33175
2434	0	10448	32952	32712	40960	33454	32851	33175
2435	0	38672	32952	32712	40960	33454	32851	33175
2436	0	54096	32992	32712	40848	33427	32902	33233
2437	0	65520	32992	32712	40848	33427	32902	33233
2438	0	65520	32976	32756	40928	33454	32887	33241
2439	0	65520	32976	32756	40928	33454	32887	33241
2440	0	65520	32976	32756	40928	33454	32887	33241
2441	0	65520	32952	32740	40992	33438	32864	33211
2442	0	65520	32952	32740	40992	33438	32864	33211
2443	0	65520	32980	32744	40888	33460	32884	33240
2444	0	52624	32980	32744	40888	33460	32884	33240
2445	0	42032	32980	32744	40888	33460	32884	33240
2446	0	0	32968	32728	40888	33449	32864	33160
2447	0	0	32968	32728	40888	33449	32864	33160
2448	0	0	33008	32728	40904	33446	32886	33164
2449	0	0	33008	32728	40904	33446	32886	33164
2450	0	0	33008	32728	40904	33446	32886	33164
2451	0	0	33016	32648	40904	33452	32899	33187
2452	0	0	33016	32648	40904	33452	32899	33187
2453	0	0	32992	32744	40984	33438	32876	33253
2454	0	0	32992	32744	40984	33438	32876	33253
2455	0	32160	32992	32744	40984	33438	32876	33253
2456	0	65520	32928	32712	41020	33453	32858	33182
2457	0	58016	32928	32712	41020	33453	32858	33182
2458	0	65520	32928	32712	41020	33453	32858	33182
2459	0	65520	33012	32704	40896	33436	32894	33268
2460	0	65520	33012	32704	40896	33436	32894	33268
2461	0	65520	32984	32704	40960	33444	32886	33162
2462	0	65520	32984	32704	40960	33444	32886	33162
2463	0	65520	32984	32704	40960	33444	32886	33162
2464	0	65520	32980	32728	40984	33443	32882	33204
2465	0	20176	32980	32728	40984	33443	32882	33204
2466	0	640	32972	32720	40920	33447	32856	33189
2467	0	0	32972	32720	40920	33447	32856	33189
2468	0	0	32972	32720	40920	33447	32856	33189
2469	0	0	33016	32696	40920	33477	32871	33182
2470	0	0	33016	32696	40920	33477	32871	33182
2471	0	0	32952	32720	40840	33430	32875	33224
2472	0	0	32952	32720	40840	33430	32875	33224
2473	0	3824	32952	32720	40840	33430	32875	33224
2474	0	11792	32952	32688	40992	33436	32855	33224
2475	0	30352	32952	32688	40992	33436	32855	33224
2476	0	65520	33000	32696	40936	33455	32888	33182
2477	0	48464	33000	32696	40936	33455	32888	33182
2478	0	65520	33000	32696	40936	33455	32888	33182
2479	0	65520	32964	32688	40912	33455	32873	33192
2480	0	65520	32964	32688	40912	33455	32873	33192
2481	0	65520	32964	32688	40912	33455	32873	33192
2482	0	65520	32992	32736	40920	33442	32874	33233
2483	0	65520	32992	32736	40920	33442	32874	33233
2484	0	59632	32988	32672	40952	33417	32882	33205
2485	0	15520	32988	32672	40952	33417	32882	33205
2486	0	11200	32988	32672	40952	33417	32882	33205
2487	0	0	32992	32696	40928	32727	32867	33184
2488	0	0	32992	32696	40928	32727	32867	33184
2489	0	0	32972	32680	40936	33377	32887	33156
2490	0	0	32972	32680	40936	33377	32887	33156
2491	0	0	32972	32680	40936	33377	32887	33156
2492	0	0	32988	32728	41008	33457	32876	33179
2493	0	0	32988	32728	41008	33457	32876	33179
2494	0	15664	32976	32712	40904	33458	32868	33191
2495	0	39120	32976	32712	40904	33458	32868	33191
2496	0	65520	32976	32712	40904	33458	32868	33191
2497	0	65520	33020	32648	40928	33459	32862	33227
2498	0	65520	33020	32648	40928	33459	32862	33227
2499	0	65520	32988	32704	40968	33445	32855	33212
2500	0	65520	32988	32704	40968	33445	32855	33212
2501	0	65520	32988	32704	40968	33445	32855	33212
2502	0	65520	32992	32760	40992	33440	32880	33196
2503	0	65520	32992	32760	40992	33440	32880	33196
2504	0	65520	32952	32728	40904	33437	32885	33208
2505	0	2576	32952	32728	40904	33437	32885	33208
2506	0	1200	32952	32728	40904	33437	32885	33208
2507	0	5184	32992	32748	40952	33445	32883	33164
2508	0	0	32992	32748	40952	33445	32883	33164
2509	0	0	32992	32748	40952	33445	32883	33164
2510	0	0	32932	32664	40928	33469	32860	33214
2511	0	0	32932	32664	40928	33469	32860	33214
2512	0	0	32992	32712	40936	33437	32879	33220
2513	0	0	32992	32712	40936	33437	32879	33220
2514	0	24192	32992	32712	40936	33437	32879	33220
2515	0	42416	32992	32728	40912	33446	32891	33208
2516	0	56224	32992	32728	40912	33446	32891	33208
2517	0	65520	32964	32712	40976	33442	32857	33159
2518	0	65520	32964	32712	40976	33442	32857	33159
2519	0	65520	32964	32712	40976	33442	32857	33159
2520	0	65520	32992	32696	40888	33442	32845	33171
2521	0	65520	32992	32696	40888	33442	32845	33171
2522	0	65520	32984	32688	40936	33433	32849	33166
2523	0	65520	32984	32688	40936	33433	32849	33166
2524	0	65520	32984	32688	40936	33433	32849	33166
2525	0	32080	32960	32728	40880	33463	32890	33184
2526	0	0	32960	32728	40880	33463	32890	33184
2527	0	9568	32956	32728	40912	33447	32876	33237
2528	0	0	32956	32728	40912	33447	32876	33237
2529	0	0	32956	32728	40912	33447	32876	33237
2530	0	0	32952	32736	40952	33467	32886	33200
2531	0	0	32952	32736	40952	33467	32886	33200
2532	0	0	32952	32736	40952	33467	32886	33200
2533	0	0	33000	32704	40936	33453	32864	33166
